epoch,train_accuracy,val_accuracy
1,0.36745908856391907,0.5239374041557312
2,0.46160852909088135,0.5239374041557312
3,0.501248836517334,0.5235871076583862
4,0.5069054961204529,0.5233535766601562
5,0.5367900133132935,0.5714619159698486
6,0.5910199284553528,0.6303129196166992
7,0.6248273849487305,0.643624484539032
8,0.6447209715843201,0.6806398630142212
9,0.6678175926208496,0.706912636756897
10,0.6945579051971436,0.7363381385803223
11,0.7090299725532532,0.7405418157577515
12,0.7212247848510742,0.7580569982528687
13,0.7292762398719788,0.7668145895004272
14,0.735447108745575,0.7544372081756592
15,0.7406923174858093,0.7546707391738892
16,0.7460991740226746,0.7634283304214478
17,0.750580370426178,0.7675151824951172
18,0.7524904012680054,0.7740541696548462
19,0.7567217946052551,0.7699673175811768
20,0.7610414028167725,0.7732368111610413
21,0.7632011771202087,0.7717188000679016
22,0.7631717920303345,0.7795422673225403
23,0.7658605575561523,0.7744044661521912
24,0.7696658968925476,0.7758057117462158
25,0.7706796526908875,0.7811770439147949
26,0.7726925611495972,0.7783746123313904
27,0.7727659940719604,0.7824614644050598
28,0.7729276418685913,0.7840962409973145
29,0.774426281452179,0.7815273404121399
30,0.775028645992279,0.7829285264015198
31,0.7765272855758667,0.7815273404121399
32,0.7769239544868469,0.7823446989059448
33,0.7782903909683228,0.7833955883979797
34,0.7773500680923462,0.7830452919006348
35,0.7792747616767883,0.7830452919006348
36,0.7793041467666626,0.7837458848953247
37,0.7701507210731506,0.7794255018234253
38,0.7716346979141235,0.7800093293190002
39,0.7702829837799072,0.7828117609024048
40,0.7749404907226562,0.7696170210838318
41,0.7756457328796387,0.7761560082435608
42,0.778687059879303,0.7816441059112549
43,0.7801416516304016,0.7840962409973145
44,0.7813464403152466,0.7860812544822693
45,0.7839176058769226,0.7852638959884644
46,0.7829478979110718,0.7902849316596985
47,0.7861361503601074,0.7842130064964294
48,0.7843289971351624,0.787132203578949
49,0.7875760197639465,0.7795422673225403
50,0.7901912927627563,0.7821111679077148
51,0.7906467914581299,0.7840962409973145
52,0.7938497066497803,0.7856141924858093
53,0.7939084768295288,0.7891172170639038
54,0.794540286064148,0.7853806614875793
55,0.7973612546920776,0.7866650819778442
56,0.7965237498283386,0.7884166240692139
57,0.7965678572654724,0.7835123538970947
58,0.7976697683334351,0.787132203578949
59,0.7991096377372742,0.7877160310745239
60,0.8000352382659912,0.787248969078064
61,0.7993741035461426,0.787482500076294
62,0.802165687084198,0.7884166240692139
63,0.8016514182090759,0.7893507480621338
64,0.8014163374900818,0.7890004515647888
65,0.8012106418609619,0.7885333895683289
66,0.8030766248703003,0.7886501550674438
67,0.8020334243774414,0.7894675135612488
68,0.8032088279724121,0.7894675135612488
69,0.7939966320991516,0.7884166240692139
70,0.7931591868400574,0.7902849316596985
71,0.7928212285041809,0.7907519936561584
72,0.7940407395362854,0.7879495620727539
73,0.7960095405578613,0.7830452919006348
74,0.795098602771759,0.7812938094139099
75,0.7980077266693115,0.7851471304893494
76,0.7979048490524292,0.7888836860656738
77,0.797552227973938,0.787248969078064
78,0.800843358039856,0.7839794754981995
79,0.8008727431297302,0.7861980199813843
80,0.8017983436584473,0.7824614644050598
81,0.8031794428825378,0.7832788228988647
82,0.8017836809158325,0.7822279334068298
83,0.804736852645874,0.7817608714103699
84,0.8054420948028564,0.7890004515647888
85,0.807631254196167,0.7842130064964294
86,0.8052070140838623,0.7816441059112549
87,0.8085275292396545,0.7791919708251953
88,0.8096882104873657,0.7863147854804993
89,0.8102171421051025,0.7844465374946594
90,0.8103640675544739,0.7865483164787292
91,0.8103494048118591,0.7864315509796143
92,0.8114954233169556,0.7850303649902344
93,0.8117451667785645,0.7854974269866943
94,0.8139637112617493,0.7851471304893494
95,0.8142722845077515,0.7864315509796143
96,0.8145807981491089,0.7863147854804993
97,0.8161088228225708,0.7864315509796143
98,0.8130528330802917,0.7864315509796143
99,0.8135082721710205,0.7866650819778442
100,0.8131409883499146,0.7866650819778442
101,0.8040022253990173,0.7814105749130249
102,0.8034732937812805,0.7887669205665588
103,0.8060885667800903,0.7844465374946594
104,0.8045458793640137,0.787482500076294
105,0.8062207698822021,0.7880663275718689
106,0.805456817150116,0.7832788228988647
107,0.8069995045661926,0.7825782299041748
108,0.8062795400619507,0.7904016971588135
109,0.8071170449256897,0.7811770439147949
110,0.8089683055877686,0.7791919708251953
111,0.8098351359367371,0.7885333895683289
112,0.8090858459472656,0.7860812544822693
113,0.809276819229126,0.7824614644050598
114,0.8119802474975586,0.7802428603172302
115,0.8118480443954468,0.7865483164787292
116,0.813126266002655,0.7881830930709839
117,0.8143898248672485,0.7858477234840393
118,0.8174164891242981,0.7859644889831543
119,0.8152272701263428,0.7840962409973145
120,0.8175927996635437,0.7828117609024048
121,0.8177984952926636,0.7859644889831543
122,0.8192824125289917,0.787132203578949
123,0.8175634145736694,0.7822279334068298
124,0.8193411827087402,0.7844465374946594
125,0.8188269734382629,0.7857309579849243
126,0.8206635117530823,0.7857309579849243
127,0.8205165863037109,0.7835123538970947
128,0.8207370042800903,0.7845633029937744
129,0.8206635117530823,0.7849135994911194
130,0.8216184973716736,0.7844465374946594
131,0.8221621513366699,0.7852638959884644
132,0.8211924433708191,0.7846800684928894
133,0.8140959739685059,0.7895842790603638
134,0.8129205703735352,0.7857309579849243
135,0.8128765225410461,0.7842130064964294
136,0.8124651312828064,0.7803596258163452
137,0.8123034834861755,0.7843297719955444
138,0.812685489654541,0.7850303649902344
139,0.8133907318115234,0.787015438079834
140,0.8148893713951111,0.7853806614875793
141,0.8160794377326965,0.7847968339920044
142,0.8154623508453369,0.7860812544822693
143,0.8163145184516907,0.7853806614875793
144,0.8137727379798889,0.7847968339920044
145,0.8173871040344238,0.7836291193962097
146,0.8174311518669128,0.7818776369094849
147,0.8196497559547424,0.7819944024085999
148,0.8175780773162842,0.7838627099990845
149,0.8213099837303162,0.7865483164787292
150,0.8218535780906677,0.7853806614875793
151,0.8220592737197876,0.7885333895683289
152,0.8221915364265442,0.7852638959884644
153,0.8227351307868958,0.7908687591552734
154,0.8231759071350098,0.7843297719955444
155,0.8241603374481201,0.7854974269866943
156,0.8247920870780945,0.7866650819778442
157,0.8260850310325623,0.7885333895683289
158,0.8269959688186646,0.7895842790603638
159,0.8265845775604248,0.7875992655754089
160,0.8265111446380615,0.786898672580719
161,0.8274661302566528,0.7861980199813843
162,0.8251006603240967,0.7857309579849243
163,0.8248802423477173,0.7861980199813843
164,0.8256736397743225,0.7859644889831543
165,0.8203990459442139,0.786781907081604
166,0.8180041909217834,0.7843297719955444
167,0.8164467811584473,0.7825782299041748
168,0.8175340294837952,0.7875992655754089
169,0.8164908289909363,0.7838627099990845
170,0.8175046443939209,0.7864315509796143
171,0.8196350336074829,0.7863147854804993
172,0.8171079158782959,0.7833955883979797
173,0.818547785282135,0.7835123538970947
174,0.8202374577522278,0.7859644889831543
175,0.8200170397758484,0.7856141924858093
176,0.8220886588096619,0.786781907081604
177,0.8206047415733337,0.787365734577179
178,0.8220592737197876,0.7826949954032898
179,0.8229114413261414,0.787482500076294
180,0.8245423436164856,0.7822279334068298
181,0.8241162300109863,0.7831620573997498
182,0.8260997533798218,0.7821111679077148
183,0.825247585773468,0.7829285264015198
184,0.8287737369537354,0.7891172170639038
185,0.8263788819313049,0.7839794754981995
186,0.8277305960655212,0.7879495620727539
187,0.8310070037841797,0.7840962409973145
188,0.8296259045600891,0.7839794754981995
189,0.8309335708618164,0.7846800684928894
190,0.8301401734352112,0.7858477234840393
191,0.8294495940208435,0.7863147854804993
192,0.8298757076263428,0.7849135994911194
193,0.8296846747398376,0.7864315509796143
194,0.8310511112213135,0.7857309579849243
195,0.8320208191871643,0.7861980199813843
196,0.8313008546829224,0.787015438079834
197,0.8256295919418335,0.7767398357391357
198,0.8229408264160156,0.7839794754981995
199,0.8238517642021179,0.7863147854804993
200,0.8204578161239624,0.7805931568145752
201,0.8213540315628052,0.7851471304893494
202,0.821559727191925,0.7823446989059448
203,0.8235138654708862,0.7875992655754089
204,0.8234697580337524,0.7731200456619263
205,0.8241309523582458,0.7811770439147949
206,0.8219270706176758,0.7812938094139099
207,0.8246598839759827,0.7832788228988647
208,0.8229555487632751,0.7828117609024048
209,0.8251594305038452,0.7885333895683289
210,0.8266580700874329,0.7847968339920044
211,0.82517409324646,0.7851471304893494
212,0.8286121487617493,0.7801260948181152
213,0.8274367451667786,0.7832788228988647
214,0.8295818567276001,0.7794255018234253
215,0.8309188485145569,0.7865483164787292
216,0.8296552896499634,0.786781907081604
217,0.8316975831985474,0.7824614644050598
218,0.8308454155921936,0.7846800684928894
219,0.8323881030082703,0.7847968339920044
220,0.8332696557044983,0.7824614644050598
221,0.8322705626487732,0.7821111679077148
222,0.8337398171424866,0.7856141924858093
223,0.8330639600753784,0.7851471304893494
224,0.8351944088935852,0.7825782299041748
225,0.834004282951355,0.7828117609024048
226,0.8341953158378601,0.7835123538970947
227,0.8341953158378601,0.7840962409973145
228,0.8357380032539368,0.7830452919006348
229,0.827701210975647,0.7801260948181152
230,0.825688362121582,0.7858477234840393
231,0.8246598839759827,0.7843297719955444
232,0.8242484927177429,0.7881830930709839
233,0.8240868449211121,0.7815273404121399
234,0.8256295919418335,0.7795422673225403
235,0.8264670372009277,0.7773236632347107
236,0.8263642191886902,0.7805931568145752
237,0.8256002068519592,0.7844465374946594
238,0.8272310495376587,0.7819944024085999
239,0.8298022150993347,0.7859644889831543
240,0.8279950618743896,0.7769733667373657
241,0.8276865482330322,0.7800093293190002
242,0.8305368423461914,0.7842130064964294
243,0.8310951590538025,0.7829285264015198
244,0.8309482336044312,0.7797757983207703
245,0.8320060968399048,0.7844465374946594
246,0.8321824073791504,0.7838627099990845
247,0.8334019184112549,0.7784913778305054
248,0.8344303965568542,0.7857309579849243
249,0.8328876495361328,0.7839794754981995
250,0.8342981338500977,0.7818776369094849
251,0.8353853821754456,0.787248969078064
252,0.8343716263771057,0.787132203578949
253,0.8362815976142883,0.7863147854804993
254,0.8354294896125793,0.7846800684928894
255,0.8375451564788818,0.7847968339920044
256,0.8367077112197876,0.7849135994911194
257,0.8359436988830566,0.7851471304893494
258,0.8367077112197876,0.7846800684928894
259,0.8354441523551941,0.7845633029937744
260,0.8373835682868958,0.7846800684928894
