1776,1776,1776,1776,1776,1776,1776,1776,1776,1776,1776,644,644,644,644,644,644,644,644,644,644,644,5366,5366,5366,5366,5366,5366,5366,5366,5366,5366,5366,5906,5906,5906,5906,5906,5906,5906,5906,5906,5906,5906,5906,5906,5906,5906,2697,2697,2697,2697,2697,2697,2697,2697,2697,2697,2697,102,102,102,102,102,102,102,102,102,102,102,102,102,102,102,102,102,102,102,102,102,102,102,3930,3930,3930,3930,3930,3930,3930,3930,3930,3930,3930,5508,5508,5508,5508,5508,5508,5508,5508,5508,5508,5508,3856,3856,3856,3856,3856,3856,3856,3856,3856,3856,3856,3856,3856,3856,3856,3856,3856,3856,3856,3856,3856,3856,3856,7767,7767,7767,7767,7767,7767,7767,7767,7767,7767,7767,7767,7767,7767,7767,7767,7767,7767,7767,7767,7767,7767,7767,5360,5360,5360,5360,5360,5360,5360,5360,5360,5360,5360,1961,1961,1961,1961,1961,1961,1961,1961,1961,1961,1961,1961,1961,1961,1186,1186,1186,1186,1186,1186,1186,1186,1186,1186,1186,5930,5930,5930,5930,5930,5930,5930,5930,5930,5930,5930,724,724,724,724,724,724,724,724,724,724,724,4172,4172,4172,4172,4172,4172,4172,4172,4172,4172,4172,4526,4526,4526,4526,4526,4526,4526,4526,4526,4526,4526,8127,8127,8127,8127,8127,8127,8127,8127,8127,8127,8127,7555,7555,7555,7555,7555,7555,7555,7555,7555,7555,7555,2292,2292,2292,2292,2292,2292,2292,2292,2292,2292,2292,4605,4605,4605,4605,4605,4605,4605,4605,4605,4605,4605,4605,4605,4605,4605,4605,4605,4605,4605,4605,4605,4605,4605,477,477,477,477,477,477,477,477,477,477,477,1585,1585,1585,1585,1585,1585,1585,1585,1585,1585,1585,1585,1585,1585,1585,1585,1585,1585,1585,1585,1585,1585,1585,3021,3021,3021,3021,3021,3021,3021,6930,6930,6930,6930,6930,6930,6930,6930,6930,6930,6930,752,752,752,752,752,752,752,752,752,752,752,1914,1914,1914,1914,1914,1914,1914,1914,1914,1914,1914,7312,7312,7312,7312,7312,7312,7312,7312,7312,7312,7312,3966,3966,3966,3966,3966,3966,3966,3966,3966,3966,3966,1955,1955,1955,1955,1955,1955,1955,1955,1955,1955,1955,5584,5584,5584,5584,5584,5584,5584,5584,5584,5584,5584,5584,5584,113,113,113,113,113,113,113,113,113,113,113,8286,8286,8286,8286,8286,8286,8286,8286,8286,8286,8286,605,605,605,605,605,605,605,605,605,605,605,842,842,842,842,842,842,842,842,842,842,842,1620,1620,1620,1620,1620,4968,4968,4968,4968,4968,4968,4968,4968,4968,4968,4968,6418,6418,6418,6418,6418,6418,6418,6418,6418,6418,6418,5110,5110,5110,5110,5110,5110,5110,5110,5110,5110,5110,5110,5110,5110,5110,5110,5110,5110,5110,5110,5110,5110,5110,427,427,427,427,427,427,427,427,427,427,427,4211,4211,4211,4211,4211,4211,4211,4211,4211,4211,4211,7610,7610,7610,7610,7610,7610,7610,7610,7610,7610,7610,4585,4585,4585,4585,4585,4585,4585,4585,4585,4585,4585,4585,4585,4585,4585,4585,4585,4585,4585,4585,4585,4585,4585,4415,4415,4415,4415,4415,4415,4415,4415,4415,4415,4415,5156,5156,5156,5156,5156,5156,5156,5156,5156,5156,5156,268,268,268,268,268,268,268,268,268,268,268,1559,1559,1559,1559,1559,1559,1559,1559,1559,1559,1559,4653,4653,4653,4653,4653,4653,4653,4653,4653,4653,4653,2335,2335,2335,2335,2335,2335,2335,2335,2335,2335,2335,3879,3879,3879,3879,3879,6579,6579,6579,6579,6579,6579,6579,6579,6579,6579,6579,8504,8504,8504,8504,8504,8504,8504,8504,8504,8504,8504,4655,4655,4655,4655,4655,4655,4655,4655,4655,4655,4655,785,785,785,785,785,785,785,785,785,785,785,5780,5780,5780,5780,5780,5780,5780,5780,5780,5780,5780,4231,4231,4231,4231,4231,4231,4231,4231,4231,4231,4231,4231,4231,4231,4231,4231,4231,4231,4231,4231,4231,4231,4231,2530,2530,2530,2530,2530,2530,2530,2530,2530,2530,2530,5322,5322,5322,5322,5322,5322,5322,5322,5322,5322,5322,3219,3219,3219,3219,3219,3219,3219,3219,3219,3219,3219,5892,5892,5892,5892,5892,5892,5892,5892,5892,5892,5892,5892,5892,214,214,214,214,214,214,214,214,214,214,214,214,214,214,214,214,214,214,214,214,214,214,214,402,402,402,402,402,402,402,402,402,402,402,3337,3337,3337,3337,3337,3337,3337,3337,3337,3337,2707,2707,2707,2707,2707,2707,2707,2707,2707,2707,2707,4883,4883,4883,4883,4883,4883,4883,4883,1810,1810,1810,1810,1810,1810,1810,1810,1810,1810,1810,8468,8468,8468,8468,8468,8468,8468,8468,8468,8468,8468,6879,6879,6879,6879,6879,6879,6879,6879,6879,6879,6879,3794,3794,3794,3794,3794,3794,3794,3794,3794,3794,3794,345,345,345,345,345,345,345,345,345,345,345,4409,4409,4409,4409,4409,4409,4409,4409,4409,4409,4409,962,962,962,962,962,962,962,962,962,962,962,7544,7544,7544,7544,7544,7544,7544,7544,7544,7544,7544,4146,4146,4146,4146,4146,4146,4146,4146,4146,4146,4146,3047,3047,3047,3047,3047,3047,3047,3047,3047,3047,3047,7320,7320,7320,7320,7320,7320,7320,7320,7320,7320,7320,7320,7320,1936,1936,1936,1936,1936,1936,1936,1936,1936,1936,1936,311,311,311,311,311,311,311,311,311,311,311,8149,8149,8149,8149,8149,8149,8149,8149,8149,8149,8149,8149,3719,3719,3719,3719,3719,3719,6653,6653,6653,6653,6653,6653,6653,6653,6653,6653,6653,4927,4927,4927,4927,4927,4927,4927,4927,4927,4927,4927,6065,6065,6065,6065,6065,6065,6065,6065,6065,6065,6065,4577,4577,4577,4577,2471,2471,2471,2471,2471,2471,2471,2471,2471,2471,2471,5289,5289,5289,5289,5289,5289,5289,5289,5289,5289,5289,5289,5289,5289,5289,5289,5289,5289,5289,5289,5289,5289,5289,981,981,981,981,981,981,981,981,981,981,981,7039,7039,7039,7039,7039,7039,7039,7039,7039,7039,7039,77,77,77,77,77,77,77,77,77,77,77,77,77,77,77,77,77,77,77,77,77,77,694,694,694,694,694,694,694,694,694,694,694,401,401,401,401,401,401,401,401,401,401,401,401,401,401,401,401,401,401,401,401,401,401,401,765,765,765,765,765,765,765,765,765,765,765,1896,1896,1896,1896,1896,1896,1896,1896,1896,1896,1896,1896,1896,1896,1896,1896,1896,1896,1896,1896,1896,1896,1896,2711,2711,2711,2711,2711,2711,2711,2711,2711,2711,2711,6807,6807,6807,6807,6807,6807,6807,6807,6807,6807,6807,7201,7201,7201,7201,7201,7201,7201,7201,7201,7201,7201,7201,7201,7201,7201,7201,7201,7201,7201,7201,7201,7201,7201,6403,6403,6403,6403,6403,6403,6403,6403,6403,6403,6403,6403,6403,1195,1195,1195,1195,1195,1195,1195,1195,1195,1195,1195,1055,1055,1055,5572,5572,5572,5572,5572,5572,5572,5572,5572,5572,5572,4463,4463,4463,4463,4463,4463,4463,4463,4463,4463,4463,3074,3074,3074,3074,3074,3074,3074,3074,3074,6646,6646,6646,6646,6646,6646,6646,6646,6646,6646,6646,6389,6389,6389,6389,6389,6389,6389,6389,6389,6389,6389,4493,4493,4493,4493,4493,4493,4493,4493,4493,4493,4493,4579,4579,4579,4579,4579,4579,4579,4579,4579,4579,4579,4579,4579,4579,4579,4579,4579,4579,4579,4579,4579,4579,4579,3315,3315,3315,3315,3315,3315,3315,3315,3315,3315,3315,4057,4057,4057,4057,4057,4057,4057,4057,4057,4057,4057,1114,1114,1114,1114,1114,1114,1114,1114,1114,1114,1114,7742,7742,7742,7742,7742,7742,7742,7742,7742,7742,7742,1424,1424,1424,1424,1424,1424,1424,1424,1424,1424,1424,7933,7933,7933,7933,7933,7933,7933,7933,7933,7933,7933,4928,4928,4928,4928,4928,4928,4928,4928,4928,4928,4928,4928,4928,4928,4928,4928,4928,4928,4928,4928,4928,4928,4928,1031,1031,1031,1031,1031,1031,1031,1031,1031,1031,1031,5912,5912,5912,5912,5912,5912,5912,5912,5912,5912,5912,5912,5912,5912,5912,6309,6309,6309,6309,6309,6309,6309,6309,6309,6309,6309,6309,6309,6309,6309,6309,6309,6309,1162,1162,1162,1162,1162,1162,1162,1162,1162,1162,1162,7452,7452,7452,7452,7452,7452,7452,7452,7452,7452,7452,4395,4395,4395,7917,7917,7917,7917,7917,7917,7917,7917,7917,7917,7917,7917,7917,7917,7917,7917,7917,7917,7917,7917,7917,7917,7917,6552,6552,6552,6552,6552,6552,6552,6552,6552,6552,6552,938,938,938,938,938,938,938,938,938,938,938,5894,5894,5894,5894,5894,5894,5894,5894,5894,5894,5894,5215,5215,5215,5215,5215,5215,5215,5215,5215,5215,5215,1431,1431,1431,1431,1431,1431,1431,1431,1431,1431,1431,2877,2877,2877,2877,2877,2877,2877,2877,2877,2877,2877,2877,2877,2877,2877,2877,2877,2877,2877,2877,2877,2877,2877,7156,7156,7156,7156,7156,7156,7156,7156,7156,7156,7156,428,428,428,428,428,428,428,428,42,42,42,42,42,42,42,42,42,42,42,42,42,42,42,42,42,42,2582,2582,2582,2582,2582,2582,2582,2582,2582,2582,2582,8250,8250,8250,8250,8250,8250,8250,8250,8250,8250,8250,2019,2019,2019,2019,2019,2019,2019,2019,2019,2019,2019,7372,7372,7372,7372,7372,7372,7372,7372,7372,7372,7372,3162,3162,3162,3162,3162,3162,3162,3162,3162,3162,3162,8152,8152,8152,8152,8152,8152,8152,8152,8152,8152,8152,8152,8152,8152,8152,8152,8152,8152,8152,8152,8152,8152,8152,2985,2985,2985,2985,2985,2985,2985,2985,2985,2985,2985,2439,2439,2439,2439,2439,2439,2439,2439,2439,2439,2439,6454,6454,6454,6454,6454,6454,6454,6454,6454,6454,6454,5867,5867,5867,5867,5867,5867,5867,5867,5867,5867,5867,5867,3439,3439,3439,3439,3439,3439,3439,3439,3439,3439,3439,4715,4715,4715,4715,4715,4715,4715,4715,4715,4715,4715,4715,4715,4715,4715,4715,4715,4715,4715,4715,4715,4715,4715,4078,4078,4078,4078,4078,4078,4078,4078,4078,4078,4078,2517,2517,2517,2517,2517,2517,2517,2517,2517,2517,2517,2113,2113,2113,2113,2113,2113,2113,2113,2113,2746,2746,2746,2746,2746,2746,2746,2746,2746,2746,2746,6590,6590,6590,6590,6590,6590,6590,6590,6590,6590,6590,3963,3963,3963,3963,3963,3963,3963,3963,3963,3963,3963,1370,1370,1370,1370,1370,1370,1370,1370,1370,1370,1370,1370,1370,1370,1370,1370,1370,1370,1370,1370,1370,1370,1370,4730,4730,4730,4730,4730,4730,4730,4730,4730,4730,4730,3128,3128,3128,3128,3128,3128,3128,3128,3128,3128,3128,6130,6130,6130,6130,6130,6130,6130,6130,6130,6130,6130,6130,6130,6130,6182,6182,6182,6182,6182,6182,6182,6182,6182,6182,6182,896,896,896,896,896,896,896,896,896,896,896,4920,4920,4920,4920,4920,8126,8126,8126,8126,8126,8126,8126,8126,8126,8126,8126,5058,5058,5058,5058,5058,5058,5058,5058,5058,5058,5058,4017,4017,4017,4017,4017,4017,4017,4017,4017,4017,4017,3767,3767,3767,3767,3767,3767,3767,3767,3767,3767,3767,3767,3767,3767,3767,3767,3767,3767,3767,3767,3767,3767,3767,977,977,977,977,977,977,977,977,977,977,977,1444,1444,1444,1444,1444,1444,1444,1444,1444,1444,1444,469,469,469,469,469,469,469,469,469,469,469,469,469,469,469,469,469,469,469,469,469,469,469,5883,5883,5883,5883,5883,5883,5883,5883,5883,5883,5883,8226,8226,8226,8226,8226,8226,8226,8226,8226,8226,8226,2791,2791,2791,2791,2791,2791,2791,2791,2791,2791,2791,3911,3911,3911,3911,3911,3911,3911,3911,3911,3911,3911,7999,7999,7999,7999,7999,7999,7999,7999,7999,7999,7999,2837,2837,2837,2837,2837,2837,2837,2837,2837,2837,2837,4850,4850,4850,4850,4850,4850,4850,4850,4850,4850,4850,1945,1945,1945,1945,1945,1945,1945,1945,1945,1945,1945,7890,7890,7890,7890,7890,7890,7890,7890,7890,7890,7890,4725,4725,4725,4725,4725,4725,4725,4725,4725,4725,4725,5104,5104,5104,5104,5104,5104,5104,5104,5104,5104,5104,8022,8022,8022,8022,8022,8022,8022,8022,8022,8022,8022,698,698,698,698,698,698,698,698,698,698,698,4639,4639,4639,4639,4639,4639,4639,4639,4639,4639,4639,5026,5026,5026,5026,5026,5026,5026,5026,5026,5026,5026,2700,2700,2700,2700,2700,2700,2700,2700,2700,2700,2700,20,20,20,20,20,20,20,20,20,20,20,5836,5836,5836,5836,5836,5836,5836,5836,5836,5836,5836,5844,5844,5844,5844,5844,5844,5844,5844,5844,5844,5844,5844,8259,8259,8259,8259,8259,8259,8259,8259,8259,8259,8259,3271,3271,3271,3271,3271,3271,3271,3271,3271,3271,3271,7025,7025,7025,7025,7025,7025,7025,7025,7025,7025,7025,4717,4717,4717,4717,4717,2571,2571,2571,2571,2571,2571,2571,2571,2571,2571,2571,7213,7213,7213,7213,7213,7213,7213,7213,7213,7213,7213,3243,3243,3243,3243,3243,3243,3243,3243,3243,3243,3243,8494,8494,8494,8494,8494,8494,8494,5593,5593,5593,5593,5593,1401,1401,1401,1401,1401,1401,1401,1401,1401,1401,1401,6379,6379,6379,6379,6379,6379,6379,6379,6379,6379,6379,4032,4032,4032,4032,4032,4032,4032,4032,4032,4032,4032,622,622,622,622,622,622,622,622,622,622,622,3830,3830,3830,3830,3830,3830,3830,3830,3830,3830,3830,3830,3830,3830,3830,3830,3830,3830,3830,3830,3830,3830,3830,8017,8017,8017,8017,8017,8017,8017,3527,3527,3527,3527,3527,3527,3527,3527,3527,3527,3527,7831,7831,7831,7831,7831,7831,7831,7831,7831,7831,7831,3660,3660,3660,3660,3660,3660,3660,3660,3660,3660,3660,3660,3660,3660,3660,3660,3660,3660,3660,3660,3660,3660,3660,8406,8406,8406,8406,8406,8406,8406,8406,8406,8406,8406,8007,8007,8007,8007,8007,8007,8007,8007,8007,8007,8007,8007,8007,8007,8007,8007,8007,8007,8007,8007,8007,8007,8007,3203,3203,3203,3203,3203,3203,3203,3203,3203,3203,3203,5427,5427,5427,5427,5427,5427,5427,5427,5427,5427,5427,7432,7432,7432,7432,7432,7432,7432,7432,7432,7432,7432,7432,7432,7432,7432,7202,7202,7202,7202,7202,7202,7202,7202,7202,7202,7202,5521,5521,5521,5521,5521,5521,5521,5521,5521,5521,5521,2668,2668,2668,2668,2668,2668,2668,2668,2668,2668,2668,7984,7984,7984,7984,7984,7984,7984,7984,7984,7984,7984,3964,3964,3964,3964,3964,3964,3964,3964,3964,3964,3964,3964,3964,3964,3964,3964,3964,3964,3964,3964,3964,466,466,466,466,466,466,466,466,466,466,466,466,466,466,466,3549,3549,3549,3549,3549,3549,3549,3549,3549,3549,3549,1471,1471,1471,1471,1471,1471,1471,1471,1471,1471,1471,947,947,947,947,947,947,947,947,947,947,947,4352,4352,4352,4352,4352,4352,4352,4352,4352,4352,4352,4352,4352,4352,4352,4352,4352,4352,4352,4352,4352,4352,4352,5536,5536,5536,5536,5536,5536,5536,5536,5536,5536,5536,1448,1448,1448,1448,1448,1448,1448,1448,1448,1448,1448,5297,5297,5297,5297,5297,5297,5297,5297,5297,5297,5297,2434,2434,2434,2434,2434,2434,2434,2434,2434,2434,2434,6208,6208,6208,6208,6208,6208,6208,6208,6208,6208,6208,918,918,918,918,918,918,918,918,918,918,918,918,918,918,918,918,918,918,918,918,918,918,918,118,118,118,118,118,118,118,118,118,118,118,7281,7281,7281,7281,7281,7281,7281,7281,7281,7281,7281,5846,5846,5846,5846,5846,5846,5846,5846,5846,5846,5846,5846,5846,5846,5846,5846,5846,5846,3604,3604,3604,3604,3604,3604,3604,3604,3604,3604,3604,6018,6018,6018,6018,6018,6018,6018,6018,6018,6018,6018,1673,1673,1673,1673,1673,1673,1673,1673,1673,1673,1673,4375,4375,4375,4375,4375,4375,4375,4375,4375,4375,4375,4122,4122,4122,4122,4122,4122,4122,4122,4122,4122,4122,8239,8239,8239,8239,8239,8239,8239,8239,8239,8239,8239,5440,5440,5440,5440,5440,5440,5440,5440,5440,5440,5440,1408,1408,1408,1408,1408,1408,1408,1408,1408,1408,1408,4259,4259,4259,4259,4259,4259,4259,4259,4259,4259,4259,3545,3545,3545,3545,3545,3545,3545,3545,3545,3545,3545,7882,7882,7882,7882,7882,7882,7882,7882,7882,7882,7882,1903,1903,1903,1903,1903,1903,1903,1903,1903,1903,1903,1903,1903,1903,1903,1903,1903,1903,1903,1903,1903,1903,1903,579,579,579,579,579,579,579,579,579,579,579,2890,2890,2890,2890,2890,2890,2890,2890,2890,2890,2890,3468,3468,3468,3468,2531,2531,2531,2531,2531,2531,2531,2531,2531,2531,2531,3697,3697,3697,3697,3697,3697,3697,3697,3697,3697,3697,7349,7349,7349,7349,7349,7349,7349,7349,7349,7349,7349,7121,7121,7121,7121,7121,7121,7121,7121,7121,7121,7121,7439,7439,7439,7439,7439,7439,7439,7439,7439,7439,7439,6948,6948,6948,6948,6948,6948,6948,6948,6948,6948,6948,4306,4306,4306,4306,4306,4306,4306,4306,4306,4306,4306,8200,8200,8200,8200,8200,8200,8200,8200,8200,8200,8200,397,397,397,397,397,397,397,397,397,397,397,7905,7905,7905,7905,7905,7905,7905,7905,7905,7905,7905,2165,2165,2165,2165,2165,2165,2165,2165,2165,2165,2165,2249,2249,2249,2249,2249,2249,2249,2249,2249,2249,2249,5698,5698,5698,5698,5698,5698,5698,5698,5698,5698,5698,5698,5698,5698,5698,5698,5698,5698,4859,4859,4859,4859,4859,4859,4859,4859,4859,4859,4859,4859,4859,4859,4859,4859,4859,4859,4859,4859,4859,4859,4859,3705,3705,3705,3705,3705,3705,3705,3705,3705,3705,3705,865,865,865,865,865,865,865,865,865,865,865,5752,5752,5752,5752,5752,5752,5752,5752,5752,5752,5752,5752,5752,5752,5752,5752,7024,7024,7024,7024,7024,7024,7024,7024,7024,7024,7024,5511,5511,5511,5511,5511,5511,5511,5511,5511,5511,5511,314,314,314,314,314,314,314,314,314,314,314,5905,5905,5905,5905,5905,5905,5905,5905,5905,5905,5905,5905,5905,5905,4426,4426,4426,4426,4426,4426,4426,4426,4426,4426,4426,104,104,104,104,104,104,104,104,104,104,104,104,104,104,104,104,104,104,104,104,104,104,104,2134,2134,2134,2134,2134,2134,2134,2134,2134,2134,2134,3953,3953,3953,3953,3953,3953,3953,3953,3953,3953,3953,5460,5460,5460,5460,5460,5460,5460,5460,5460,5460,5460,4055,4055,4055,4055,4055,4055,4055,4055,4055,4055,4055,1825,1825,1825,1825,1825,1825,1825,1825,1825,1825,1825,6158,6158,6158,6158,6158,6158,6158,6158,6158,6158,6158,6158,7493,7493,7493,7493,7493,7493,7493,7493,7493,7493,7493,3075,3075,3075,3075,3075,3075,3075,3075,3075,3075,3075,7117,7117,7117,7117,7117,7117,7117,7117,7117,7117,7117,2541,2541,2541,2541,2541,2541,2541,2541,2541,2541,2541,2028,2028,2028,2028,2028,2028,2028,2028,2028,2028,2028,6589,6589,6589,6589,6589,6589,6589,6589,6589,6589,6589,180,180,180,180,180,180,180,180,180,180,180,7705,7705,7705,7705,7705,7705,7705,7705,7705,7705,7705,7635,7635,7635,7635,5650,5650,5650,5650,5650,5650,5650,5650,5650,5650,5650,5650,655,655,655,655,655,655,655,655,655,655,655,5108,5108,5108,5108,5108,5108,5108,5108,5108,5108,5108,4621,4621,4621,4621,4621,4621,4621,4621,4621,4621,4621,7051,7051,7051,7051,7051,7051,7051,7051,7051,7051,7051,2283,2283,2283,2283,2283,2283,2283,2283,2283,2283,2283,2283,2283,2283,2283,2283,2283,2283,2283,2283,2283,2283,2283,7954,7954,7954,7954,7954,7954,7954,7954,7954,7954,7954,2348,2348,2348,2348,2348,2348,2348,2348,2348,2348,2348,6440,6440,6440,6440,6440,6440,6440,6440,6440,6440,6440,2376,2376,2376,2376,2376,2376,2376,2376,2376,2376,2376,448,448,448,448,448,448,448,448,448,448,8169,8169,8169,8169,8169,8169,8169,8169,8169,8169,8169,7617,7617,7617,7617,7617,7617,7617,7617,7617,7617,7617,465,465,465,465,465,465,465,465,465,465,465,3941,3941,3941,3941,3941,3941,3941,3941,3941,3941,3941,4743,4743,4743,4743,4743,4743,4743,4743,4743,4743,4743,4516,4516,4516,4516,4516,4516,4516,4516,4516,4516,4516,3135,3135,3135,3135,3135,3135,3135,3135,3135,3135,3135,5085,5085,5085,5085,5085,5085,5085,5085,5085,5085,5085,3905,3905,3905,3905,3905,3905,3905,3905,3905,3905,3905,3905,3905,3905,3905,3905,3905,3905,3905,3905,3905,3905,3905,133,133,133,133,133,133,133,133,133,133,133,1698,1698,1698,1698,1698,1698,1698,1698,1698,1698,1698,6967,6967,6967,6967,6967,6967,6967,6967,6967,6967,6967,2831,2831,2831,2831,2831,1027,1027,1027,1027,1027,1027,1027,1027,1027,1027,1027,6280,6280,6280,6280,6280,6280,6280,6280,6280,6280,6280,6280,6280,6280,6280,6280,6280,6280,6280,6280,6280,6280,6280,8458,8458,8458,8458,8458,8458,8458,8458,8458,8458,8458,1628,1628,1628,1628,1628,1628,7014,7014,7014,7014,7014,7014,7014,7014,7014,7014,7014,6883,6883,6883,6883,6883,6883,6883,6883,6883,6883,6883,6169,6169,6169,6169,6169,6169,6169,6169,6169,6169,6169,56,56,56,56,56,56,56,56,2662,2662,2662,2662,7282,7282,7282,7282,7282,7282,7282,7282,7282,7282,7282,1622,1622,1622,1622,1622,1622,1622,1622,1622,1622,1622,2573,2573,2573,2573,2573,2573,2573,2573,2573,2573,2573,2573,2573,2573,2573,2573,2573,2573,2573,5845,5845,5845,5845,5845,2822,2822,2822,2822,2822,2822,2822,2822,2822,2822,2822,4344,4344,4344,4344,4344,4344,4344,4344,4344,4344,4344,2872,2872,2872,2872,2872,2872,2872,2872,2872,2872,2872,6450,6450,6450,6450,6450,6450,6450,6450,6450,6450,6450,781,781,781,781,781,781,781,781,781,781,781,967,967,967,967,967,967,967,967,967,967,967,967,967,967,967,967,967,967,967,967,967,967,967,3614,3614,3614,3614,3614,3614,3614,3614,3614,3614,3614,3614,3614,3614,3614,3614,3614,3614,3614,3614,3614,3614,3614,3893,3893,3893,3893,3893,3893,3893,3893,3893,3893,3893,7006,7006,7006,7006,7006,7006,7006,7006,7006,7006,7006,7006,7006,7006,7006,7006,7006,7006,7006,7006,7006,7006,7006,6835,6835,6835,6835,6835,6835,6835,6835,6835,6835,6835,5489,5489,5489,5489,5489,5489,5489,5489,5489,5489,5489,8049,8049,8051,8051,8051,8051,8051,8051,8051,8051,8051,8051,8051,8051,5505,5505,5505,5505,5505,5505,5505,5505,5505,5688,5688,5688,5688,5688,5688,5688,5688,5688,5688,5688,5688,5688,7205,7205,7205,7205,7205,7205,7205,7205,7205,7205,7205,3354,3354,3354,3354,3354,3354,3354,3354,3354,3354,3354,7677,7677,7677,7677,7677,7677,7677,1433,1433,1433,1433,1433,1433,1433,1433,1433,1433,1433,7361,7361,7361,7361,7361,7361,7361,7361,7361,7361,7361,2553,2553,2553,2553,2553,2553,2553,2553,2553,2553,2553,4847,4847,4847,4847,4847,4847,4847,4847,4847,4847,4847,5369,5369,5369,5369,5369,5369,5369,5369,5369,5369,5369,6561,6561,6561,6561,6561,6561,6561,6561,6561,6561,6561,6658,6658,6658,6658,6658,6658,6658,6658,6658,6658,6658,7607,7607,7607,7607,7607,7607,7607,7607,7607,7607,7607,4519,4519,4519,4519,4519,4519,4519,4519,4519,4519,4519,4943,4943,4943,4943,4943,4943,4943,4943,4943,4943,4943,4943,4943,4943,4943,4943,4943,4943,4943,2813,2813,2813,2813,2813,2813,2813,2813,2813,2813,2813,3286,3286,3286,3286,3286,3286,3286,3286,3286,3286,3286,7715,7715,7715,7715,7715,7715,7715,7715,7715,7715,7715,2511,2511,2511,2511,2511,2511,2511,2511,2511,2511,2511,7943,7943,7943,7943,7943,7943,7943,7943,7943,7943,7943,6459,6459,6459,6459,6459,6459,6459,6459,6459,6459,6459,3559,3559,3559,3559,3559,3559,3559,3559,3559,3559,3559,2563,2563,2563,2563,2563,2563,2563,2563,2563,2563,2563,6541,6541,6541,6541,6541,6541,6541,6541,6541,6541,6541,4363,4363,4363,4363,4363,4363,4363,4363,4363,4363,4363,491,491,491,491,491,491,491,491,491,491,491,1636,1636,1636,1636,1636,1636,1636,1636,1636,1636,1636,4936,4936,4936,4936,4936,3455,3455,3455,3455,3455,5601,5601,5601,5601,5601,5601,5601,5601,5601,5601,5601,5601,4671,4671,4671,4671,4671,4671,4671,4671,4671,4671,4671,3972,3972,3972,3972,3972,3972,3972,3972,3972,3972,3972,3919,3919,3919,3919,3919,3919,3919,3919,3919,3919,3919,1707,1707,1707,1707,1707,1707,1707,1707,1707,1707,1707,4478,4478,4478,4478,4478,4478,4478,4478,4478,4478,4478,2493,2493,2493,2493,8474,8474,8474,8474,8474,8474,8474,8474,8474,8474,8474,2587,2587,2587,2587,2587,2587,2587,2587,2587,2587,2587,6986,6986,6986,6986,6986,6986,6986,6986,6986,6986,6986,4712,4712,4712,4712,4712,4712,4712,4712,4712,4712,4712,3644,3644,3644,3644,3644,3644,3644,3644,3644,3644,3644,1108,1108,1108,1108,1108,1108,1108,1108,1108,1108,1108,4953,4953,4953,4953,4953,4953,4953,4953,4953,4953,4953,4953,4953,4953,4953,4953,4953,4953,4953,4953,4953,3031,3031,3031,3031,3031,3031,3031,3031,3031,3031,3031,6601,6601,6601,6601,6601,6601,6601,6601,6601,6601,6601,1848,1848,1848,1848,1848,1848,1848,5740,5740,5740,5740,5740,5740,5740,5740,5740,5740,5740,5740,1532,1532,1532,1532,1532,1532,1532,1532,1532,1532,1532,4318,4318,4318,4318,4318,4318,4318,4318,4318,4318,4318,3765,3765,3765,3765,3765,3765,3765,3765,3765,3765,3765,6952,6952,6952,6952,6952,6952,6952,6952,6952,6952,6952,6952,6952,6952,6952,6952,6952,6952,6952,6952,6952,6952,6952,2560,2560,2560,2560,2560,2560,2560,2560,2560,2560,2560,6310,6310,6310,6310,6310,6310,6310,6310,6310,6310,6310,6310,6310,6310,6310,6310,6310,373,373,373,373,373,373,373,373,373,373,373,3201,3201,3201,3201,3201,3201,3201,3201,3201,3201,3201,5182,5182,5182,5182,358,358,358,358,358,358,358,358,358,358,358,3584,3584,3584,3584,3584,3584,3584,3584,3584,3584,3584,6843,6843,6843,6843,6843,6843,6843,6843,6843,6843,6843,8000,8000,8000,8000,8000,8000,8000,8000,8000,8000,8000,496,496,496,496,496,496,496,496,496,496,496,7891,7891,7891,7891,7891,7891,7891,7891,7891,7891,7891,786,786,786,786,786,786,786,786,786,786,786,5872,5872,5872,5872,5872,5872,5872,5872,5872,5872,5872,5872,5872,5992,5992,5992,5992,5992,5992,5992,5992,5992,5992,5992,5992,5992,5992,5992,5992,5992,3796,3796,3796,3796,3796,3796,3796,3796,3796,3796,3796,4766,4766,4766,4766,4766,4766,4766,4766,4766,4766,4766,292,292,292,292,292,292,292,292,292,292,292,241,241,241,241,241,241,241,241,241,241,241,1457,1457,1457,1457,1457,1457,1457,1457,1457,1457,1457,1457,1457,1457,1457,1457,1457,1457,1457,1457,1457,1457,6091,6091,6091,6091,6091,6091,6091,6091,6091,6091,6091,6560,6560,6560,6560,6560,6560,6560,6560,6560,6560,6560,2420,2420,2420,2420,2420,2420,2420,2420,2420,2420,2420,2420,2420,2420,2420,2420,2420,2420,2420,2420,4351,4351,4351,4351,4351,4351,4351,4351,4351,4351,4351,4351,4351,2302,2302,2302,2302,2302,2302,2302,2302,2302,2302,2302,5106,5106,5106,5106,5106,5106,5106,5106,5106,5106,5106,5106,5106,5106,5106,5106,5106,5106,5106,5106,5106,5106,5106,535,535,535,535,535,535,535,535,535,535,535,8446,8446,8446,8446,8446,8446,8446,8446,8446,8446,8446,1204,1204,1204,1204,1204,1204,1204,1204,1204,1204,1204,7325,7325,7325,7325,7325,7325,7325,7325,7325,7325,7325,3777,3777,3777,3777,3777,3777,3777,3777,3777,3777,3777,6351,6351,6351,6351,6351,6351,6351,6351,6351,6351,6351,7888,7888,7888,7888,7888,7888,7888,7888,7888,7888,7888,2412,2412,2412,2412,2412,2412,2412,2412,2412,2412,2412,2412,2412,2412,2412,2774,2774,2774,2774,2774,2774,2774,2774,2774,2774,2774,2097,2097,2097,2097,2097,2097,2097,2097,2097,2097,2097,8161,8161,8161,8161,8161,8161,8161,8161,8161,8161,8161,8161,8161,8161,8161,8161,8161,8161,8161,8161,8161,8161,8161,610,610,610,610,4188,4188,4188,4188,4188,4188,4188,4188,4188,4188,4188,6111,6111,6111,6111,6111,6111,6111,6111,6111,6111,6111,6111,4468,4468,4468,4468,4468,4468,4468,4468,4468,4468,4468,975,975,975,975,975,975,975,975,975,975,975,7847,7847,7847,7847,7847,7847,7847,7847,7847,7847,7847,6740,6740,6740,6740,6740,6740,6740,6740,6740,6740,6740,2788,2788,2788,2788,2788,2788,2788,2788,2788,2788,2788,1193,1193,1193,1193,1193,1193,1193,1193,1193,1193,1193,1193,1193,1193,1193,1193,1193,1193,1193,1193,1193,1193,1193,6490,6490,6490,6490,6490,6490,6490,6490,6490,6490,6490,7833,7833,7833,7833,7833,7833,7833,8456,8456,8456,8456,8456,8456,8456,8456,8456,8456,8456,8400,8400,8400,8400,8400,8400,8400,8400,8400,8400,8400,5429,5429,5429,5429,5429,5429,5429,5429,5429,5429,5429,7731,7731,7731,7731,7731,7731,7731,7731,7731,7731,7731,2651,2651,2651,2651,2651,2651,2651,2651,2651,2651,2651,736,736,736,736,736,736,736,736,736,736,736,1000,1000,1000,1000,1000,1000,1000,1000,1000,1000,1000,3325,3325,3325,3325,3325,3325,3325,3325,3325,3325,3325,6094,6094,6094,6094,6094,6094,6094,6094,6094,6094,6094,6289,6289,6289,6289,6289,6289,6289,6289,6289,6289,6289,6289,6289,6289,6289,6289,6289,6289,6289,6800,6800,6800,6800,6800,6800,6800,6800,6800,6800,6800,3904,3904,3904,3904,3904,3904,3904,3904,3904,3904,3904,8330,8330,8330,8330,8330,8330,8330,8330,8330,8330,8330,8330,8330,7300,7300,7300,7300,7300,7300,7300,7300,7300,7300,7300,8309,8309,8309,8309,8309,8309,8309,8309,8309,8309,8309,6480,6480,6480,6480,7774,7774,7774,7774,7774,7774,7774,7774,7774,7774,7774,1182,1182,1182,1182,1182,1182,1182,1182,1182,1182,1182,4380,4380,4380,4380,4380,4380,4380,4380,4380,4380,4380,4198,4198,4198,4198,4198,4198,4198,4198,4198,4198,4198,7382,7382,7382,7382,7382,7382,7382,7382,7382,7382,7382,3079,3079,3079,3079,3079,3079,3079,3079,3079,3079,3079,3079,3079,3079,3079,3079,3079,3079,3079,3079,3079,3079,3079,4285,4285,4285,4285,4285,4285,4285,4285,4285,4285,4285,6075,6075,6075,6075,6075,6075,6075,6075,6075,6075,6075,6075,6075,6075,6075,8393,8393,8393,8393,8393,8393,8393,8393,8393,8393,8393,7551,7551,7551,7551,7551,7551,7551,7551,7551,7551,7551,1718,1718,1718,1718,1718,1718,1718,1718,1718,1718,1718,3343,3343,3343,3343,3343,3343,3343,3343,3343,3343,3343,5819,5819,5819,5819,5819,5819,5819,5819,5819,5819,5819,5819,5819,5819,5819,5819,5819,5819,5819,5819,5819,5819,7743,7743,7743,7743,7743,7743,7743,7743,7743,7743,7745,7745,7745,7745,7745,7745,7745,7745,7745,7745,7745,8261,8261,8261,8261,8261,8261,8261,8261,8261,8261,8261,3861,3861,3861,3861,3861,3861,3861,3861,3861,3861,3861,7241,7241,7241,7241,7241,7241,7241,7241,7241,7241,7241,5963,5963,5963,5963,5963,5963,5963,5963,5963,5963,5963,5963,6946,6946,6946,6946,6946,6946,6946,6946,6946,6946,6946,1676,1676,1676,1676,1676,1676,1676,1676,1676,1676,1676,1676,1676,1676,1676,1676,1676,1676,1676,1676,1676,1676,1676,7922,7922,7922,7922,7922,7922,7922,7922,7922,7922,7922,3479,3479,3479,3479,3479,3479,3479,3479,3479,3479,3479,167,167,167,167,167,167,167,167,167,167,167,7410,7410,7410,7410,7410,7410,7410,7410,7410,7410,7410,2332,2332,2332,2332,2332,2332,2332,2332,2332,2332,2332,6277,6277,6277,6277,6277,6277,6277,6277,6277,6277,6277,6277,6277,6277,6277,6277,6277,6277,6277,6277,6277,6925,6925,6925,6925,6925,6925,6925,6925,6925,6925,6925,360,360,360,360,360,360,360,360,360,360,360,8078,8078,8078,8078,6747,6747,6747,6747,6747,6747,6747,6747,6747,6747,6747,518,518,518,518,518,518,518,518,518,518,518,1169,1169,1169,1169,1169,1169,1169,1169,775,775,775,775,775,775,775,775,775,775,775,3332,3332,3332,3332,3332,3332,3332,3332,3332,3332,3332,2452,2452,2452,2452,2452,2452,2452,2452,2452,2452,2452,2686,2686,2686,2686,2686,2686,2686,2686,2686,2686,2686,2686,2686,2686,2686,2686,2686,2686,2686,2686,2686,2686,2686,7695,7695,7695,7695,7695,7695,7695,7695,7695,7695,7695,153,153,153,153,153,153,153,153,153,153,153,5583,5583,5583,5583,5583,5583,5583,5583,5583,5583,5583,5583,3598,3598,3598,3598,3598,3598,3598,3598,3598,3598,3598,5875,5875,5875,5875,5875,5875,5875,5875,5875,5875,5875,5875,5875,5875,5875,5875,5875,5875,89,89,89,89,89,89,89,89,89,89,89,3205,3205,3205,3205,3205,3205,3205,3205,3205,3205,3205,4174,4174,4174,4174,4174,4174,4174,4174,4174,4174,4174,875,875,875,875,875,875,875,875,875,875,875,6566,6566,6566,6566,6566,6566,1862,1862,1862,1862,1862,1862,1862,1862,1862,1862,1862,5359,5359,5359,5359,5359,5359,5359,5359,5359,5359,5359,5359,5359,5359,5359,5359,5359,361,361,361,361,361,361,361,361,361,361,361,4424,4424,4424,4424,4424,4424,4424,4424,4424,4424,4424,6328,6328,6328,6328,6328,6328,6328,6328,6328,6328,6328,6328,6328,7428,7428,7428,7428,7428,7428,7428,7428,7428,7428,7428,837,837,837,837,837,837,837,837,837,837,837,6790,6790,6790,6790,6790,6790,6790,6790,6790,6790,6790,1774,1774,1774,1774,1774,1774,1774,1774,1774,1774,1774,8475,8475,8475,8475,8475,8475,8475,8475,8475,8475,8475,3339,3339,3339,3339,3339,3339,3339,3339,3339,3339,3339,5474,5474,5474,5474,5474,5474,5474,5474,5474,5474,5474,7250,7250,7250,7250,7250,7250,7250,7250,7250,7250,7250,7250,7250,7250,7250,7250,7250,7250,7250,7250,7250,7250,7250,808,808,808,808,808,808,808,808,808,808,808,3792,3792,3792,3792,3792,3792,3792,3792,3792,3792,3792,2911,2911,2911,2911,2911,2911,2911,2911,2911,2911,2911,2713,2713,2713,2713,2713,2713,2713,2713,2713,2713,2713,5177,5177,5177,5177,5177,5177,5177,5177,5177,5177,5177,1668,1668,1668,1668,1668,1668,1668,1668,1668,1668,1668,980,980,980,980,980,980,980,980,980,980,980,7384,7384,7384,7384,7384,7384,7384,7384,7384,7384,7384,2850,2850,2850,2850,2850,2850,2850,2850,2850,8225,8225,8225,8225,8225,8225,8225,8225,8225,8225,8225,1869,1869,1869,1869,1869,1869,1869,1869,1869,7991,7991,7991,7991,7991,7991,7991,7991,7991,7991,7991,3979,3979,3979,3979,3979,3979,3979,3979,3979,3979,3979,8279,8279,8279,8279,8279,8279,8279,8279,8279,8279,8279,450,450,450,450,450,450,450,450,450,450,450,2366,2366,2366,2366,2366,2366,2366,2366,2366,2366,2366,384,384,384,384,384,384,384,384,384,384,384,3084,3084,3084,3084,3084,3084,3084,3084,3084,3084,3084,7725,7725,7725,7725,7725,7725,7725,7725,7725,7725,7725,2136,2136,2136,2136,2136,2136,2136,2136,2136,2136,2136,4967,4967,4967,4967,4967,4967,4967,4967,4967,4967,4967,1250,1250,1250,1250,1250,1250,1250,1250,1250,1250,1250,5298,5298,5298,5298,5298,5298,5298,5298,5298,5298,5298,2377,2377,2377,2377,2377,2377,2377,2377,3567,3567,3567,3567,3567,3567,3567,3567,3567,3567,3567,3567,3567,3567,3567,3567,3567,3567,3567,3567,3567,3567,3567,7611,7611,7611,7611,7611,7611,7611,7611,7611,7611,7611,1155,1155,1155,1155,1155,6369,6369,6369,6369,6369,6369,6369,6369,6369,6369,6369,4566,4566,4566,4566,4566,4566,4566,4566,4566,4566,4566,6626,6626,6626,6626,6626,6626,6626,6626,6626,6626,6626,6064,6064,6064,6064,6064,6064,6064,6064,6064,6064,6064,6064,6064,1338,1338,1338,1338,1338,1338,1338,1338,1338,1338,1338,4636,4636,4636,4636,4636,4636,4636,4636,4636,4636,4636,4636,4636,4636,4636,4636,4636,4636,4636,4636,4636,4636,4636,1746,1746,1746,1746,1746,1746,1746,1746,1746,1746,1746,2071,2071,2071,2071,2071,2071,2071,2071,2071,2071,2071,7671,7671,7671,7671,7671,7671,7671,7671,7671,7671,7671,2685,2685,2685,2685,2685,2685,2685,2685,2685,2685,2685,5191,5191,5191,5191,5191,5191,5191,5191,5191,5191,5191,3150,3150,3150,3150,3150,3150,3150,3150,3150,3150,3150,3150,894,894,894,894,894,894,894,894,894,894,894,3500,3500,3500,3500,3500,3500,3500,3500,3500,3500,3500,7129,7129,7129,7129,7129,7129,7129,7129,7129,7129,7129,3106,3106,3106,3106,3106,3106,3106,3106,3106,3106,3106,2588,2588,2588,2588,2588,2588,2588,2588,2588,2588,2588,7181,7181,7181,7181,7181,7181,7181,7181,7181,7181,7181,3107,3107,3107,3107,3107,3107,3107,3107,3107,3107,3107,3107,3107,3107,3107,3107,3107,3107,3107,3107,3107,3107,3107,6714,6714,6714,6714,6714,6714,6714,6714,6714,6714,6714,521,521,521,521,521,521,521,521,521,521,521,6067,6067,6067,6067,6067,6067,6067,6067,6067,6067,6067,6067,6067,2402,2402,2402,2402,2402,2402,2402,2402,2402,2402,2402,5582,5582,5582,5582,5582,5582,5582,5582,5582,5582,5582,5582,5737,5737,5737,5737,5737,5737,5737,5737,5737,5737,5737,5737,5737,5737,5737,5737,7938,7938,7938,7938,7938,7938,7938,7938,7938,7938,7938,1515,1515,1515,1515,1515,1515,1515,1515,1515,1515,1515,8103,8103,8103,8103,4663,4663,4663,4663,4663,4663,4663,4663,4663,4663,4663,3267,3267,3267,3267,3267,3267,3267,3267,3267,3267,3267,500,500,500,500,500,500,500,500,500,500,500,8383,8383,8383,8383,4540,4540,4540,4540,4540,4540,4540,4540,4540,4540,4540,3356,3356,3356,3356,3356,3356,3356,3356,3356,3356,3356,7498,7498,7836,7836,7836,7836,7836,7836,7836,7836,7836,7836,7836,6802,6802,6802,6802,6802,6802,6802,6802,6802,6802,6802,5773,5773,5773,5773,5773,5773,5773,5773,5773,5773,5773,2330,2330,2330,2330,2330,2330,2330,2330,2330,2330,2330,6245,6245,6245,6245,6245,6245,6245,6245,6245,6245,6245,6245,5438,5438,5438,5438,5438,5438,5438,5438,5438,5438,5438,431,431,431,431,431,431,431,431,431,431,431,3368,3368,3368,3368,3368,3368,3368,3368,3368,3368,3368,6782,6782,6782,6782,6782,6782,6782,6782,6782,6782,6782,7145,7145,7145,7145,7145,7145,7145,7145,7145,7145,7145,7145,7145,7145,7145,7145,7145,454,454,454,454,454,454,454,454,454,454,454,454,454,454,454,454,454,454,454,454,454,454,454,2806,2806,2806,2806,2806,2806,2806,2806,2806,2806,2806,1278,1278,1278,1278,1278,1278,1278,1278,1278,1278,1278,1278,1278,1278,1278,1278,1278,1278,1278,1278,1278,1278,1278,2018,2018,2018,2018,2018,2018,2018,2018,2018,2018,2018,4092,4092,4092,4092,4092,4092,4092,4092,4092,4092,4092,3543,3543,3543,3543,3543,3543,3543,3543,3543,3543,3543,326,326,326,326,326,326,326,326,326,326,326,5005,5005,5005,5005,5005,5005,5005,5005,5005,5005,5005,3459,3459,3459,5146,5146,5146,5146,5146,5146,5146,5146,5146,5146,5146,2446,2446,2446,2446,2446,2446,2446,2446,2446,2446,2446,1523,1523,1523,1523,1523,1523,1523,1523,1523,1523,1523,1080,1080,1080,1080,1080,1080,1080,1080,1080,1080,1080,1080,1080,1080,1080,1080,1080,4797,4797,4797,4797,4797,4797,4797,4797,4797,4797,4797,7344,7344,7344,7344,7344,7344,7344,7344,7344,7344,7344,5997,5997,5997,5997,5997,5997,5997,5997,5997,5997,5997,3037,3037,3037,3037,3037,3037,3037,3037,3037,5386,5386,5386,5386,5386,5386,5386,5386,5386,5386,5386,6042,6042,6042,6042,6042,6600,6600,6600,6600,6600,6600,6600,6600,6600,6600,6600,4396,4396,4396,4396,4396,4396,4396,4396,4396,4396,4396,5377,5377,5377,5377,5377,5377,5377,5377,5377,5377,5377,160,160,160,160,160,160,160,160,160,160,160,160,160,160,160,160,160,160,160,160,160,160,160,2815,2815,2815,2815,2815,2815,2815,2815,2815,2815,2815,3780,3780,3780,3780,2422,2422,2422,2422,2422,2422,2422,2422,2422,2422,2422,7548,7548,7548,7548,7548,7548,7548,7548,7548,7548,7548,3022,3022,3022,3022,3022,3022,3022,3022,3022,3022,3022,827,827,827,827,827,827,827,827,827,827,827,7114,7114,7114,7114,7114,7114,7114,7114,7114,7114,7114,8166,8166,8166,8166,8166,8166,8166,8166,8166,8166,8166,4824,4824,4824,4824,4824,4824,4824,4824,4824,4824,4824,4824,4824,4824,4824,4824,4824,4824,4824,4824,4824,4824,4824,7068,7068,7068,7068,7068,7068,7068,7068,7068,7068,7068,8523,8523,8523,8523,8523,8523,8523,8523,8523,8523,8523,3841,3841,3841,3841,3841,3841,3841,3841,3841,3841,3841,5076,5076,5076,5076,5076,5076,5076,5076,5076,5076,5076,8395,8395,8395,8395,8395,8395,8395,8395,8395,8395,8395,6233,6233,6233,6233,6233,6233,6233,6233,6233,6233,6233,3495,3495,3495,3495,3495,3495,3495,3495,3495,3495,3495,3495,3495,3495,3495,8150,8150,8150,8150,8150,8150,8150,8150,8150,8150,8150,6563,6563,6563,6563,6563,6563,6563,6563,6563,6563,6563,6520,6520,6520,6520,6520,6520,6520,6520,6520,6520,6520,8414,8414,8414,8414,8414,8414,8414,8414,8414,8414,8414,3827,3827,3827,3136,3136,3136,3136,3136,3136,3136,3136,3136,3136,3136,5378,5378,5378,5378,5378,5378,5378,5378,5378,5378,5378,1960,1960,1960,1960,1960,1960,1960,1960,1960,1960,1960,3990,3990,3990,1752,1752,1752,1752,1752,1752,1752,1752,1752,1752,1752,8448,8448,8448,8448,8448,8448,8448,8448,8448,8448,8448,1856,1856,1856,1856,1856,1856,1856,1856,1856,1856,1856,4239,4239,4239,4239,4239,4239,4239,4239,4239,4239,4239,158,158,158,158,158,158,158,158,158,158,158,3533,3533,3533,3533,3533,3533,3533,3533,3533,3533,3533,5689,5689,5689,5689,5689,5689,5689,5689,5689,5689,5689,1006,1006,1006,1006,1006,1006,1006,1006,1006,1006,1006,7130,7130,7130,7130,7130,7130,7130,7130,7130,7130,7130,6474,6474,6474,6474,6474,6474,6474,7158,7158,7158,7158,7158,7158,7158,7158,7158,7158,7158,874,874,874,874,874,874,874,874,874,874,874,4123,4123,4123,4123,4123,4123,4123,4123,4123,4123,4123,3536,3536,3536,3536,3536,3536,3536,3536,3536,3536,3536,2089,2089,2089,2089,2089,2089,2089,2089,2089,2089,2089,75,75,75,75,75,75,75,75,75,75,75,5268,5268,5268,5268,5268,5268,5268,5268,5268,5268,5268,3384,3384,3384,3384,3384,3384,3384,3384,3384,3384,3384,3526,3526,3526,3526,3526,3526,3526,3526,3526,3526,3526,1742,1742,1742,1742,1742,1742,1742,1742,1742,1742,1742,1742,3386,3386,3386,3386,3386,3386,3386,3386,3386,3386,3386,5935,5935,5935,5935,5935,5935,5935,5935,5935,5935,5935,5935,5935,5935,936,936,936,936,936,936,4016,4016,4016,4016,4016,4016,4016,4016,4016,4016,4016,3462,3462,3462,3462,3462,3462,3462,3462,3462,3462,3462,8164,8164,8164,8164,8164,8164,8164,8164,8164,8164,8164,2520,2520,2520,2520,2520,2520,2520,2520,1547,1547,1547,1547,1547,1547,1547,1547,1547,1547,1547,723,723,723,723,723,723,723,723,723,723,723,723,723,723,723,723,723,723,723,723,723,723,723,6962,6962,6962,6962,6962,6962,6962,6962,6962,6962,6962,4341,4341,4341,4341,4341,4341,4341,4341,4341,4341,4341,733,733,733,733,733,733,733,733,733,733,733,7876,7876,7876,7876,7876,7876,7876,7876,7876,7876,7876,6548,6548,6548,6548,6548,6548,6548,6548,6548,6548,6548,5806,5806,5806,5806,5806,5806,5806,5806,5806,5806,5806,5806,1316,1316,1316,1316,1316,1316,1316,1316,1316,1316,1316,275,275,275,275,275,275,275,275,275,275,275,1569,1569,1569,1569,1569,1569,1569,1569,1569,1569,1569,6191,6191,6191,6191,6191,6191,6191,6191,6191,6191,6191,247,247,247,247,247,247,247,247,247,247,247,3105,3105,3105,3105,3105,3105,3105,3105,3105,3105,3105,7408,7408,7408,7408,7408,7408,7408,7408,7408,7408,7408,7408,7408,7408,7408,7408,7408,7408,7408,7408,7408,7408,7408,6629,6629,6629,6629,6629,6629,6629,6629,6629,6629,6629,6629,6629,6629,6629,6629,6629,6629,6629,6629,6629,6629,6629,7846,7846,7846,7846,7846,7846,7846,7846,7846,7846,7846,4294,4294,4294,4294,4294,4294,4294,4294,4294,4294,4294,8121,8121,8121,8121,8121,8121,8121,8121,8121,8121,6693,6693,6693,6693,6693,7486,7486,7486,7486,7486,7486,7486,7486,7486,7486,7486,6205,6205,6205,6205,6205,6205,6205,6205,6205,6205,6205,869,869,869,869,869,869,869,869,869,869,869,3381,3381,3381,3381,3381,3381,3381,3381,3381,3381,3381,3381,3381,3381,3381,3381,3381,3381,3381,3381,3381,3381,3381,1106,1106,1106,1106,1106,1106,1106,1106,1106,1106,1106,7295,7295,7295,7295,7295,7295,7295,7295,7295,7295,7295,3908,3908,3908,3908,3908,3908,3908,3908,3908,3908,3908,3908,3908,3908,3908,3908,3908,3908,3908,3908,3908,3908,3908,3367,3367,3367,3367,3367,3367,3367,3367,3367,3367,3367,8028,8028,8028,8028,8028,8028,8028,8028,8028,8028,8028,4781,4781,4781,4781,4781,4781,4781,4781,4781,4781,4781,2993,2993,2993,2993,2993,2993,2993,2993,2993,2993,2993,1447,1447,1447,1447,1447,3113,3113,3113,3113,3113,3113,3113,3113,3113,3113,3113,3113,3113,3113,3113,3113,3113,3113,3113,3113,3113,3113,3113,5833,5833,5833,5833,5833,5833,5833,5833,5833,5833,5833,4443,4443,4443,4443,4443,4443,4443,4443,4443,4443,4443,6093,6093,6093,6093,6093,6093,6093,6093,6093,6093,6093,5352,5352,5352,5352,5352,5352,5352,5352,5352,5352,5352,4666,4666,4666,4666,6470,6470,6470,6470,6470,6470,6470,6470,6470,6470,6470,1780,1780,1780,1780,6242,6242,6242,6242,6242,6242,6242,6242,6242,6242,6242,1908,1908,1908,1908,1908,1908,1908,1908,1908,1908,1908,1908,1908,1908,1908,1908,1908,1908,1908,4034,4034,4034,4034,4034,4034,4034,4034,4034,4034,4034,4034,4034,4034,4034,4034,4034,4034,4034,4034,4034,4034,4034,2754,2754,2754,2754,2754,2754,2754,2754,2754,2754,2754,235,235,235,235,3454,3454,3454,3454,3454,3454,3454,3454,3454,3454,3454,7487,7487,7487,7487,7487,1335,1335,1335,1335,1335,1335,1335,1335,1335,1335,1335,4037,4037,4037,4037,4037,4037,4037,4037,4037,4037,4037,6766,6766,6766,6766,6766,6766,6766,6766,6766,6766,6766,3048,3048,3048,3048,3048,3048,3048,3048,3048,3048,3048,2137,2137,2137,2137,539,539,539,539,539,539,539,539,539,539,539,3126,3126,3126,3126,3126,3126,3126,3126,3126,3126,3126,2559,2559,2559,2559,2559,2559,2559,2559,2559,2559,2559,5614,5614,5614,5614,5614,5614,5614,5614,5614,5614,5614,287,287,287,287,287,287,287,287,287,287,287,4033,4033,4033,4033,4033,4033,4033,4033,4033,4033,4033,4033,4033,4033,4033,4033,4033,4033,4033,4033,4033,4033,4033,1650,1650,1650,1650,1650,1650,1650,1650,1650,1650,1650,1650,1650,1650,1650,1650,1650,1650,1650,1650,1650,1650,1650,7825,7825,7825,7825,7825,7825,7825,7825,7825,7825,7825,2808,2808,2808,2808,2808,2808,2808,2808,2808,2808,2808,6312,6312,6312,6312,6312,6312,6312,6312,6312,6312,6312,6312,6312,6312,6312,6312,6312,6312,6312,6312,6312,2542,2542,2542,2542,2542,2542,2542,2542,2542,2542,2542,4385,4385,4385,4385,4385,4385,4385,1963,1963,1963,1963,4951,4951,4951,4951,4951,4951,4951,4951,4951,4951,6313,6313,6313,6313,6313,6313,6313,6313,6313,6313,6313,2575,2575,2575,2575,2575,2575,2575,2575,2575,2575,2575,2575,2575,2575,2575,2575,2575,2575,2575,2575,2575,2575,2575,4690,4690,4690,4690,4690,4690,4690,4690,4690,4690,4690,4690,4690,4690,4690,4690,4690,4690,4690,4690,4690,4690,4690,4013,4013,4013,4013,4013,4013,4013,4013,4013,4013,2941,2941,2941,3193,3193,3193,6939,6939,6939,6939,6939,6939,6939,6939,6939,6939,6939,7565,7565,7565,7565,7565,7565,7565,7565,7565,7565,7565,4159,4159,4159,4159,4159,4159,4827,4827,4827,4827,4827,4827,4827,4827,4827,4827,4827,8335,8335,8335,8335,8335,8335,8335,8335,8335,8335,8335,2373,2373,2373,2373,2373,2373,2373,2373,2373,7293,7293,7293,7293,7293,7293,7293,7293,7293,7293,7293,2153,2153,2153,2153,2153,2153,2153,2153,2153,2153,2153,8217,8217,8217,8217,8217,8217,8217,8217,8217,8217,8217,8037,8037,8037,8037,8037,8037,8037,8037,8037,8037,8037,6862,6862,6862,6862,6862,6862,6862,6862,6862,6862,6862,2967,2967,2967,2967,2967,2967,2967,2967,2967,2967,2967,3080,3080,3080,3080,3080,3080,635,635,635,635,635,635,635,635,635,635,635,6537,6537,6537,6537,6537,6537,6537,6537,6537,6537,6537,1393,1393,1393,1393,1393,1393,1393,1393,1393,1393,1393,7855,7855,7855,7855,7855,7855,7855,7855,7855,7855,7855,4871,4871,4871,4871,4871,4871,4871,4871,4871,4871,4871,1411,1411,1411,1411,1411,1411,1411,1411,1411,1411,1411,7899,7899,7899,7899,7899,7899,7899,7899,7899,7899,7899,919,919,919,919,919,919,919,919,919,919,919,2289,2289,2289,2289,2289,2289,2289,2289,2289,2289,2289,4924,4924,4924,4924,2086,2086,2086,2086,2086,2086,2086,2086,2086,2086,2086,3474,3474,3474,3474,3474,3474,3474,3474,3474,3474,3474,3474,3474,3474,3474,3474,3474,3474,3474,3474,3474,3474,3474,7925,7925,7925,7925,7925,7925,7925,7925,7925,7925,7925,1993,1993,1993,1993,1993,1993,1993,1993,1993,1993,1993,1481,1481,1481,1481,1481,1481,1481,1481,1481,1481,1481,5278,5278,5278,5278,5278,5278,5278,5278,5278,5278,5278,3728,3728,3728,3728,3728,3728,3728,3728,3728,3728,3728,3728,3728,3728,3728,3728,3728,3728,3728,3728,3728,3728,3728,6753,6753,6753,6753,6753,6753,6753,6753,6753,6753,6753,5665,5665,5665,5665,5665,5665,5665,5665,5665,5665,5665,2843,2843,2843,2843,2843,2843,2843,2843,2843,2843,2843,2843,2843,2843,2843,2843,2843,2843,2843,2843,2843,2843,2843,3247,3247,3247,3247,3247,3247,3247,3247,3247,3247,3247,1807,1807,1807,1807,1807,1807,1807,1807,1807,1807,1807,6142,6142,6142,6142,6142,6142,6142,6142,6142,6142,6142,2910,2910,2910,2910,2910,2910,2910,2910,2910,2910,2910,5236,5236,5236,5236,5236,5236,5236,5236,5236,5236,5236,4893,4893,4893,4893,4893,4893,4893,4893,4893,4893,4893,8367,8367,8367,8367,8367,8367,8367,8367,8367,8367,8367,5028,5028,5028,5028,5028,5028,5028,5028,5028,5028,5028,4716,4716,4716,4716,4716,4716,4716,4716,4716,4716,4716,331,331,331,331,331,331,331,331,331,331,331,5020,5020,5020,5020,5020,5020,5020,5020,5020,5020,5020,3097,3097,3097,3097,3097,2550,2550,2550,2550,2550,2550,2550,2550,2550,2550,2550,2550,2550,2550,2550,2550,2550,2550,2550,2550,2550,2550,2550,7736,7736,7736,7736,7736,7736,7736,7736,7736,7736,7736,2069,2069,2069,2069,2069,2069,2069,2069,2069,2069,2069,8172,8172,8172,8172,8172,8172,8172,8172,8172,8172,8172,7191,7191,7191,7191,7191,7191,7191,7191,7191,7191,7191,900,900,900,900,900,900,900,900,900,3045,3045,3045,3045,3045,3045,3045,3045,3045,3045,3045,3045,3045,3045,3045,3045,3045,3045,3045,3045,3045,3045,3045,1667,1667,1667,1667,1667,1667,1667,1667,1667,1667,1667,1667,1667,1667,1667,1667,1667,1667,1667,1667,1667,1667,1667,6219,6219,6219,6219,6219,6219,6219,6219,6219,6219,6219,6219,7586,7586,7586,7586,7586,7586,7586,7586,7586,7586,7586,7576,7576,7576,7576,7576,7576,7576,7576,7576,7576,7576,7043,7043,7043,7043,7043,7043,7043,7043,7043,7043,7043,2859,2859,2859,2859,2859,2859,2859,2797,2797,2797,2797,2797,2797,2797,2797,2797,2797,2797,2388,2388,2388,2388,2388,2388,2388,2388,2388,2388,2388,6486,6486,6486,6486,6486,6486,6486,6486,6486,6486,6486,8098,8098,8098,8098,8098,8098,8098,6485,6485,6485,6485,6485,6485,6485,6485,6485,6485,6485,1728,1728,1728,1728,1728,1728,1728,1728,1728,1728,1728,302,302,302,302,302,302,302,302,302,302,334,334,334,334,334,334,334,334,334,334,334,702,702,702,702,702,702,702,702,702,702,702,702,702,702,702,702,702,702,702,702,702,702,702,5464,5464,5464,5464,5464,5464,5464,5464,5464,5464,5464,3557,3557,3557,3557,3557,3557,3557,3557,3557,3557,3557,3557,3557,3557,3557,3557,3557,3557,3557,3557,3557,3557,3557,930,930,930,930,930,930,930,930,930,930,930,2614,2614,2614,2614,2614,2614,2614,2614,2614,2614,2614,3316,3316,3316,3316,3316,3316,3316,3316,3316,3316,3316,0,0,0,0,0,0,0,0,0,0,0,7159,7159,7159,7159,7159,7159,7159,7159,7159,7159,7159,4182,4182,4182,4182,4182,4182,4182,4182,4182,4182,4182,4410,4410,4410,4410,4410,4410,4410,4410,4410,4410,4410,3850,3850,3850,3850,3850,3850,3850,3850,3850,3850,3850,6881,6881,6881,6881,6881,6881,6881,6881,6881,6881,6881,2546,2546,2546,2546,2546,2546,2546,2546,2546,2546,2546,7183,7183,7183,7183,7183,7183,7183,7183,7183,7183,7183,3741,3741,3741,3741,3741,3741,3741,3741,3741,3741,3741,2083,2083,2083,2083,2083,2083,2083,2083,2083,2083,2083,726,726,726,726,726,726,726,726,726,726,726,8425,8425,8425,8425,8425,8425,8425,8425,8425,8425,8425,49,49,49,49,49,49,49,49,49,49,49,8236,8236,8236,8236,8236,8236,8236,8236,8236,8236,8236,4573,4573,4573,4573,4573,4573,4573,4573,4573,4573,4573,2799,2799,2799,2799,2799,2799,2799,2799,2799,2799,2799,7307,7307,7307,7307,7307,7307,7307,7307,7307,7307,7307,7307,7307,7307,7307,7307,7307,7307,7307,7307,7307,7307,7307,4552,4552,4552,4552,4552,4552,4552,4552,4552,4552,4552,4552,4552,4552,4552,4552,4552,4552,4552,4552,4552,4552,4552,7482,7482,7482,7482,7482,7236,7236,7236,7236,7236,7236,7236,7236,7236,7236,7236,1967,1967,1967,1967,1967,1967,1967,1967,1967,1967,1967,5757,5757,5757,5757,5757,5757,5757,5757,5757,5757,5757,5757,5757,2979,2979,2979,2979,2979,2979,2979,2979,2979,2979,2979,5064,5064,5064,5064,5064,5064,5064,5064,5064,5064,5064,1976,1976,1976,1976,1976,1976,1976,1976,1976,1976,1976,5230,5230,5230,5230,5230,5230,5230,5230,5230,5230,5230,1861,1861,1861,1861,1861,1861,1861,1861,1861,1861,1861,8442,8442,8442,8442,8442
