110,110,110,110,110,110,110,110,6151,6151,6151,6151,6151,6151,6151,6151,6151,6151,6386,6386,6386,6386,6386,6386,4810,4810,4810,4810,4810,4810,4810,4810,1724,1724,1724,1724,1724,1724,1724,1724,6116,6116,6116,6116,6116,6116,6116,6116,820,820,820,820,820,820,820,820,7283,7283,7283,7283,7283,7283,7283,7283,7283,7283,7283,7283,7283,2313,2313,2313,2313,2313,2313,2313,2313,2313,2313,2313,7750,7750,7750,7750,7750,7750,7750,7750,6211,6211,6211,6211,6211,6211,6211,6211,6211,6211,6211,6721,6721,6721,6721,6721,6721,6721,6721,807,807,807,807,807,807,807,807,5753,5753,5753,5753,5753,5753,5753,5753,2827,2827,2827,2827,2827,2827,2827,2827,2827,2827,2827,6264,6264,6264,6264,6264,6264,6264,6264,6264,1228,1228,1228,1228,1228,1228,1228,1228,5432,5432,5432,5432,5432,5432,5432,5432,5432,5432,5432,5432,5432,7510,7510,7510,7510,7510,7510,7510,7510,5065,5065,5065,5065,5065,5065,5065,5065,5065,5065,5065,4390,4390,4390,4390,4390,4390,4390,4390,3891,3891,3891,3891,7394,7394,7394,7394,7394,7394,7394,7394,7394,7394,7394,4205,4205,4205,4205,4205,4205,4205,4205,145,145,145,145,145,145,145,145,290,290,290,290,290,290,290,290,290,290,290,2029,2029,2029,2029,2029,2029,2029,2029,3631,3631,3631,3631,3631,3631,3631,3631,3631,3631,3631,3631,3631,3631,3631,3631,3631,1626,1626,1626,1626,1626,1626,1626,1626,1626,1626,1626,7168,7168,7168,7168,7168,7168,7168,7168,4987,4987,2345,2345,2345,2345,2345,2345,2345,2345,8374,8374,8374,8374,8374,8374,8374,8374,8374,8374,8374,57,57,57,57,57,57,57,57,57,57,57,57,57,57,57,57,57,57,57,57,57,57,57,3924,3924,3924,3924,3924,3924,3924,3924,5258,5258,5258,5258,5258,5258,5258,5258,3542,3542,3542,3542,3542,3542,3542,3542,1554,1554,1554,1554,1554,1554,1554,1554,2200,2200,2200,2200,2200,2200,2200,2200,2272,2272,2272,2272,2272,2272,2272,2272,2272,2272,2272,6409,6409,6409,6409,6409,6409,6409,6409,6409,6409,6409,6409,6409,6409,6409,6409,6409,4955,4955,4955,4955,4955,4955,4955,4955,4955,4955,4955,4955,4955,4955,4955,4955,4955,2014,2014,2014,2014,2014,2014,2014,2014,236,236,236,236,236,236,236,236,1286,1286,1286,1286,1286,1286,1286,1286,544,544,544,544,544,544,544,544,544,544,544,3237,3237,3237,3237,3237,3237,3237,3237,1605,1605,1605,1605,1605,1605,1605,1605,1605,1605,1605,5259,5259,5259,5259,5259,5259,5259,5259,4266,4266,4266,4266,4266,4266,4266,4266,4266,4266,4266,4266,4266,4266,4266,4266,4266,4282,4282,4282,4282,4282,4282,4282,4282,8033,8033,8033,8033,4830,4830,4830,4830,4830,4830,4830,7472,7472,7472,7472,7472,7472,7472,7472,7472,7472,7472,7472,7472,3303,3303,3303,3303,3303,3303,3303,3303,2486,2486,2486,2486,2486,2486,2486,2486,2486,2486,2486,2486,2486,2486,2486,2486,2486,7732,7732,7732,7732,7732,7732,7732,7732,7732,7732,7732,4627,4627,4627,4627,4627,4627,4627,4627,4627,4627,4627,7315,7315,7315,7315,7315,7315,7315,7315,7315,7315,7315,66,66,66,66,66,66,66,66,66,66,66,66,66,2767,2767,2767,2767,2767,2767,2767,2767,2767,2767,2767,2767,2767,2767,2767,2767,2767,2626,2626,2626,2626,2626,2626,2626,2626,7042,7042,7042,7042,7042,7042,7042,7042,891,891,891,891,891,891,891,891,891,891,891,891,891,891,891,891,891,891,891,891,891,891,891,2010,2010,2010,2010,2010,2010,2010,2010,2010,2010,2010,2010,2010,2010,2010,2010,2010,2010,2010,2010,2010,2010,6928,6928,6928,6928,6928,6928,6928,6928,2081,2081,2081,2081,2081,2081,2081,2081,4856,4856,4856,4856,4856,4856,4856,4856,3865,3865,3865,3865,3865,3865,3865,3865,1678,1678,1678,1678,1678,1678,1678,1678,1678,1678,1678,8351,8351,8351,8351,8351,8351,8351,8351,6598,6598,6598,6598,6598,6598,6598,6598,1802,1802,1802,1802,1802,1802,1802,1802,1658,1658,1658,1658,1658,1658,1658,1658,1658,1658,1658,1658,1658,1658,1658,1658,1658,7625,7625,7625,7625,7625,7625,7625,7625,7625,7625,7625,7625,7625,6147,6147,6147,6147,6147,6147,6147,6147,2988,2988,2988,2988,2988,2988,2988,2988,449,449,449,449,449,449,449,449,7258,7258,7258,7258,7258,436,436,436,436,436,436,436,436,7754,7754,7754,7754,7754,7754,7754,7754,4642,4642,4642,4642,4642,4642,6919,6919,6919,6919,6919,6919,6919,6919,6919,6919,6919,5347,5347,5347,5347,3620,3620,3620,3620,3620,3620,3620,3620,3620,3620,3620,3335,3335,3335,3335,3335,3335,3335,3335,3335,3335,3335,3335,3335,3335,3335,3335,3335,2116,2116,2116,2116,2116,2116,2116,2116,2116,2116,2116,4507,4507,4507,4507,4507,4507,4507,4507,8041,8041,8041,8041,8041,8041,8041,8041,8041,8041,8041,7316,7316,7316,7316,7316,7316,7316,7316,8375,8375,8375,8375,8375,8375,8375,8375,8375,8375,8375,8375,8375,1656,1656,1656,1656,1656,1656,1656,1656,174,174,174,174,174,174,174,174,3913,3913,3913,4298,4298,4298,4298,4298,4298,4298,4298,4298,4298,4298,4298,4298,1613,1613,1613,1613,1613,1613,1613,1613,1613,1613,1613,6035,6035,6035,6035,6035,6035,6035,6035,1844,1844,1844,1844,1844,1844,1844,1844,41,41,41,41,41,41,41,41,8133,8133,8133,8133,8133,8133,8133,8133,8133,8133,8133,4494,4494,4494,4494,4494,4494,4494,4494,4494,4494,4494,923,923,923,923,923,923,923,923,923,923,923,3008,3008,3008,3008,3008,3008,3008,3008,3008,3008,3008,3008,3008,3008,3008,3008,3008,5185,5185,5185,5185,5185,5185,5185,3445,3445,3445,3445,3445,3445,3445,3445,3445,3445,3445,3445,3445,7712,7712,7712,7712,7712,7712,7712,7712,7712,7712,7712,2293,2293,2293,2293,2293,2293,2293,2293,2293,2293,2293,5279,5279,5279,5279,5279,5279,5279,5279,5279,5279,5279,6517,6517,6517,6517,6517,6517,6517,6517,3504,3504,3504,3504,3504,3504,3504,3504,2585,2585,2585,2585,2585,2585,2585,2585,7273,7273,7273,7273,7273,7273,7273,7273,7273,7273,7273,7314,7314,7314,7314,7314,7314,7314,7314,660,660,660,660,660,660,660,660,5550,5550,5550,5550,5550,5550,5550,5550,5550,5550,5550,5550,5550,5550,5550,5550,5550,5550,5550,5550,5550,5550,5550,2032,2032,2032,2032,2032,2032,2032,2032,264,264,264,264,264,264,264,264,877,877,877,877,877,877,877,877,877,877,877,6585,6585,6585,6585,6585,6585,6585,6585,922,922,922,922,922,922,922,922,922,922,922,3656,3656,3656,3656,3656,3656,3656,3656,3656,3656,3656,3656,3656,3656,3656,3656,3656,3656,3656,3656,3656,3656,3656,3656,3656,3656,3656,6992,6992,6992,6992,6992,6992,6992,6992,8444,8444,8444,6994,6994,6994,6994,6994,6994,6994,6994,6994,6994,6994,7760,7760,7760,7760,7760,7760,7760,7760,1649,1649,1649,1649,1649,1649,1649,1649,3624,3624,3624,3624,3624,3624,3624,3624,6110,6110,6110,6110,6110,6110,6110,6110,6110,2241,2241,2241,2241,2241,2241,2241,2241,2241,2241,2241,6407,6407,6407,6407,6407,6407,6407,6407,6407,6407,6407,6407,6407,6407,6407,6407,6407,5574,5574,5574,5574,5574,5574,5574,5574,5574,5574,5574,5574,5574,5574,5574,5574,5574,2338,2338,2338,2338,2338,2338,2338,2338,2164,2164,2164,2164,2164,2164,2164,2164,2164,2164,2164,2164,2164,5809,5809,5809,5809,5809,5809,5809,5809,7894,7894,7894,7894,7894,7894,7894,7894,7894,7894,7894,2178,2178,5784,5784,5784,5784,5784,5784,5784,5784,5784,5784,4118,4118,4118,4118,4118,4118,4118,4118,5490,5490,5490,5490,5490,5490,5490,5490,1309,1309,1309,1309,1309,1309,1309,1309,1309,1309,6904,6904,6904,6904,6904,6904,6904,6904,6904,6904,6904,6904,6904,5856,5856,5856,5856,5856,5856,5856,5856,5856,5856,5856,6683,6683,6683,6683,6683,6683,6683,6683,30,30,30,30,30,30,30,30,1768,1768,1768,1768,1768,1768,1768,1768,8003,8003,8003,8003,8003,8003,8003,8003,6770,6770,6770,6770,6770,6770,6770,6770,2267,2267,2267,2267,2267,2267,2267,2267,2267,2267,2267,5339,5339,5339,5339,5339,5339,5339,5339,5339,5339,5339,6491,6491,6491,6491,6491,6491,6491,6491,6491,6491,6491,6491,6491,6491,6491,6491,6491,4114,4114,4114,4114,4114,4114,4114,4114,4114,4114,4114,4114,4114,4114,4114,4114,4114,7297,7297,7297,7297,7297,7297,7297,7297,226,226,226,226,226,226,226,226,6821,6821,6821,6821,6821,6821,6821,6821,5488,5488,5488,5488,5488,5488,5488,5488,5488,5488,5488,5488,5488,5488,5488,5488,5488,5488,5488,5488,5488,5488,5488,2586,2586,2586,2586,2586,2586,2586,2586,2586,2586,2586,2586,2586,2888,2888,2888,2888,2888,2888,2888,2888,2888,2888,2888,2888,2888,2888,2888,2888,2888,2888,2888,2888,2888,2888,2888,3493,3493,3493,3493,3493,3493,3493,3493,7919,7919,7919,7919,7919,7919,7919,7919,7919,7919,3849,3849,3849,3849,3849,3849,3849,3849,2761,2761,2761,2761,6019,6019,6019,6019,6019,6019,6019,6019,6019,6019,6019,959,959,959,959,959,959,959,959,3790,3790,3790,3790,3790,3790,3790,3790,7906,7906,7906,7906,7906,7906,7906,7906,3369,3369,3369,3369,3369,3369,3369,3369,3369,3369,3369,7696,7696,7696,7696,7696,7696,2143,2143,2143,2143,2143,2143,2143,2143,6828,6828,6828,6828,6828,6828,6828,6828,3192,3192,3192,3192,3192,3192,3192,3192,7675,7675,7675,7675,7675,1420,1420,1420,1420,1420,1420,1420,1420,758,758,758,758,758,758,758,758,758,758,3428,3428,3428,3428,3428,5901,5901,5901,5901,5901,5901,5901,5901,5901,5901,5901,6911,6911,6911,6911,6911,6911,6911,6911,6911,6911,6911,6911,6911,3574,3574,3574,3574,3574,3574,3574,3574,3574,3574,3574,6669,6669,6669,6669,6669,6669,6669,6669,5733,5733,5733,5733,5733,5733,5733,5733,5733,5733,5733,5733,5733,5733,5733,5733,5733,5733,5733,5733,1599,1599,1599,1599,1599,1599,1599,1599,6741,6741,6741,6741,6741,6741,6741,6741,6741,6741,6741,1740,1740,1740,1740,1740,1740,1740,1740,6198,6198,6198,6198,6198,6198,6198,6198,6198,6198,6198,6198,6198,4534,4534,4534,4534,4534,4534,4534,4534,128,128,128,128,128,128,128,128,3415,3415,3415,3415,3415,3415,3415,3415,3415,3415,3415,3645,3645,3645,3645,3645,3645,3645,3645,3645,3645,3645,5651,5651,5651,5651,5651,5651,5651,5651,4664,4664,4664,4664,4664,4664,4664,4664,4664,4664,4664,4664,4664,4664,4664,4664,4664,4664,4664,4664,4664,4664,4664,8392,8392,8392,8392,8392,8392,8392,8392,5971,5971,5971,5971,5971,5971,5971,5971,5971,5971,5971,7398,7398,7398,7398,7398,7398,7398,7398,7657,7657,7657,2305,2305,2305,2305,2305,2305,2305,2305,599,599,599,599,599,599,599,599,511,511,511,511,511,511,511,511,6316,6316,6316,6316,6316,6316,6316,6316,6316,6316,6316,6316,6316,6316,6316,6316,7543,7543,7543,7543,7543,7543,7543,7543,5953,5953,5953,5953,5953,5953,5953,5953,5953,5953,5953,5953,5953,5953,5953,5953,5953,5953,3991,3991,3991,3991,3991,3991,3991,3991,5180,5180,5180,5180,5180,5180,5180,5180,5180,5180,5180,6596,6596,6596,6596,6596,6596,6596,6596,1682,1682,1682,1682,1682,1682,1682,1682,2238,2238,2238,2238,2238,2238,2238,2238,2238,2238,2238,2238,2238,2238,2238,2238,2238,4179,4179,4179,4179,4179,4179,4179,4179,5355,5355,5355,5355,5355,5355,5355,5355,5355,5355,5355,8067,8067,8067,8067,8067,8067,8067,8067,4571,4571,4571,4571,4571,4571,4571,4571,6358,6358,6358,6358,6358,6358,6358,6358,2497,2497,2497,2497,2497,2497,2497,2497,2497,2497,2497,3020,3020,3020,3020,3020,3020,3020,3020,3020,3020,3020,3020,3020,3020,3020,3020,3020,3020,3020,3020,3020,3020,3020,1996,1996,1996,1996,1996,1996,1996,1996,1996,1996,1996,612,612,612,612,612,612,612,612,612,612,612,612,612,612,612,612,612,612,612,612,612,612,612,612,612,612,612,7376,7376,7376,7376,7376,7376,7376,7376,2557,2557,2557,2557,2557,2557,2557,2557,2539,2539,2539,2539,2539,2539,2539,2539,3293,3293,3293,3293,3293,3293,3293,3293,3293,3293,3293,963,963,963,963,963,963,963,963,963,963,963,963,963,3683,3683,3683,3683,3683,3683,3683,3683,5648,5648,5648,5648,5648,5648,5648,5648,2781,2781,2781,2781,2781,2781,2781,2781,2781,2781,2781,2781,2781,3015,3015,3015,3015,3015,3015,3015,3015,3015,3015,3015,2011,2011,2011,2011,2011,2011,2011,2011,2011,2011,2011,3345,3345,3345,3345,3345,3345,3345,3345,3345,3345,3345,3345,3345,1423,1423,1423,6375,6375,6375,6375,6375,6375,6375,6375,2147,2147,2147,2147,2147,2147,2147,2147,3358,3358,3358,3358,3358,3358,3358,3358,6225,6225,6225,6225,6225,6225,6225,6225,6225,6225,6225,6036,6036,6036,6036,6036,6036,6036,6036,6637,6637,6637,6637,6637,6637,6637,6637,6637,6637,6637,4319,4319,4319,4319,4319,4319,4319,4319,4319,4319,4319,4482,4482,4482,4482,4482,4482,4482,4482,4482,4482,4482,4482,4482,4482,4482,4482,4482,3123,3123,3123,3123,3123,3123,3123,3123,4436,4436,4436,4436,4436,4436,4436,4436,5392,5392,5392,5392,5392,5392,5392,5392,5392,5392,5392,7616,7616,7616,7616,7616,7616,7616,7616,7616,7616,7616,5696,5696,5696,5696,5696,5696,5696,5696,7207,7207,7207,7207,7207,7207,7207,7207,7207,7207,7207,1517,1517,1517,1517,1517,1517,1517,1517,1517,1517,1517,2708,2708,2708,2708,2708,2708,2708,2708,2708,2708,2708,588,588,588,1268,1268,1268,1268,1268,1268,1268,1268,3592,3592,3592,3592,3592,3592,3592,3592,5848,5848,5848,5848,5848,5848,5848,5848,3603,3603,3603,3603,3603,3603,3603,3603,254,254,254,254,254,254,254,254,382,382,382,382,382,382,4356,4356,4356,4356,4356,4356,4356,4356,4356,4356,4356,7914,7914,7914,7914,7914,7914,7914,7914,7914,7914,7914,2621,2621,2621,2621,2621,2621,2621,2621,7775,7775,7775,7775,7775,7775,7775,7775,7775,7775,7775,720,720,720,720,720,720,720,720,720,720,720,720,720,720,720,720,720,7419,7419,7419,7419,7419,7419,7419,7419,2690,2690,2690,2690,2690,2690,2690,2690,2256,2256,2256,2256,2256,2256,2256,2256,2256,2256,2256,1635,1635,1635,1635,1635,1635,1635,1635,1635,1635,1635,1634,1634,1634,1634,8409,8409,8409,8409,8409,8409,8409,8409,8409,8409,8409,5102,5102,5102,5102,5102,5102,5102,5102,5102,5102,5102,1476,1476,1476,1476,1476,1476,1476,1476,1476,1476,1476,6032,6032,6032,6032,6032,6032,6032,6032,6032,6032,6032,6032,6032,6032,6032,6032,6032,6032,6032,6032,4789,4789,4789,4789,4789,4789,4789,4789,3115,3115,3115,3115,3115,3115,3115,3115,3115,3115,3115,731,731,731,731,731,731,731,731,731,731,731,4461,4461,4461,4461,4461,4461,4461,4461,6535,6535,6535,6535,6535,6535,6535,6535,6535,6535,6535,6535,6535,6535,6535,6535,6535,6535,6535,6535,6535,6535,6535,6535,6535,6535,6535,5524,5524,5524,5524,5524,5524,5524,5524,6427,6427,6427,6427,6427,6427,6427,6977,6977,6977,6977,6977,6977,6977,6977,6388,6388,6388,6388,6388,6388,6388,6388,6388,6388,6388,6388,6388,6388,6388,6388,6388,6388,6388,6388,6388,6388,6388,6388,6388,6388,6388,3788,3788,3788,3788,3788,3788,3788,3788,3788,3788,3788,5793,5793,5793,5793,5793,5793,5793,5793,5136,5136,5136,5136,5136,5136,5136,5136,3450,3450,3450,3450,3450,3450,3450,1039,1039,1039,1039,1039,7584,7584,7584,7584,7584,7584,7584,7584,1385,1385,1385,1385,1385,1385,1385,1385,1385,1385,1385,1385,1385,5072,5072,5072,5072,5072,3227,3227,3227,3227,3227,3227,3227,3227,3227,3227,3227,3227,3227,3227,3227,3227,3227,3227,3227,3227,3227,3227,3227,7525,7525,7525,7525,7525,7525,7525,7525,7525,7525,7525,6973,6973,6973,6973,6973,6973,6973,6973,3398,3398,3398,3398,3398,3398,3398,3398,3398,3398,3398,4228,4228,4228,4228,4228,4228,4228,4228,4010,4010,4010,4010,4010,4010,4010,4010,2833,2833,2833,2833,2833,2833,2833,2833,2833,2833,2833,4805,4805,4805,4805,4805,4805,4805,4805,2063,2063,2063,2063,2063,2063,2063,2063,2950,2950,2950,2950,2950,2950,2950,2950,1834,1834,1834,1834,1834,1834,1834,1834,7741,7741,7741,7741,7741,7741,7741,7741,7741,7741,7741,7741,7741,7741,7741,7741,7741,7741,4251,4251,4251,4251,4251,4251,4251,4251,4251,4251,4251,4251,4251,4251,4251,4251,4251,7753,7753,7753,7753,7753,7753,7753,7753,7753,7753,7753,851,851,851,851,851,851,851,851,597,597,597,597,597,597,597,597,6783,6783,6783,6783,6783,6783,6783,6783,8340,8340,8340,8340,8340,8340,8340,8340,6422,6422,6422,6422,6422,6422,6422,6422,6422,6422,6422,6422,6422,3400,3400,2994,2994,2994,2994,2994,2994,2994,2994,2994,2994,2994,1148,1148,1148,1148,1148,1148,1148,1148,7614,7614,4757,4757,4757,4757,4757,4757,4757,4757,1969,1969,1969,1969,1969,1969,1969,1969,1969,1969,1969,5161,5161,5161,5161,5161,5161,6781,6781,6781,6781,6781,6781,6781,6781,6781,6781,6781,6781,6781,4313,4313,4313,4313,4313,4313,4313,4313,2793,2793,2793,2793,2793,2793,2793,2793,7854,7854,7854,7854,7854,7854,7854,7854,339,339,339,339,339,339,339,339,339,339,339,4145,4145,4145,4145,4145,4145,4145,4145,5201,5201,5201,5201,5201,5201,5201,5201,5478,5478,5478,5478,5478,5478,5478,5478,8328,8328,8328,8328,8328,8328,7570,7570,7570,7570,7570,7570,7570,7570,6798,6798,6798,6798,6798,6798,6798,6798,6798,6798,6798,6798,6798,6798,6554,6554,6554,6554,6554,6554,6554,6554,6859,6859,6859,6859,6859,6859,6859,6859,6859,6859,6859,6859,6859,6859,6859,6859,6859,6859,6859,6859,6859,6859,6859,6345,6345,6345,6345,6345,6345,6345,6345,6345,6345,6345,4373,4373,4373,4373,4373,4373,4373,4373,4373,4373,4373,4373,4373,4373,4373,4373,4373,4373,4373,4373,4373,4373,4373,4460,4460,4460,4460,4460,4460,4460,4460,4460,4460,4460,4460,4460,4460,4460,4460,4460,6303,6303,6303,6303,6303,6303,6303,6303,6303,6303,6303,1238,1238,1238,1238,1238,1238,1238,1238,325,325,325,325,325,325,325,325,325,325,325,8124,8124,8124,8124,8124,8124,8124,4021,4021,4021,4021,4021,4021,4021,4021,5938,5938,5938,5938,5938,5938,5938,5938,5938,681,681,681,681,681,681,681,681,4982,4982,4982,4982,5467,5467,5467,5467,5467,5467,5467,5467,3414,3414,3414,3414,3414,3414,3414,3414,5978,5978,5978,5978,5978,5978,5978,5978,5978,5978,5978,7761,7761,7761,7761,7761,7761,7761,7761,4618,4618,4618,4618,4618,4618,4618,4618,5538,5538,5538,5538,5538,5538,5538,5538,5538,5538,5538,3055,3055,3055,3055,3055,3055,3055,3055,7146,7146,7146,7146,7146,7146,7146,7146,2506,2506,2506,2506,2506,2506,2506,2506,2231,2231,2231,2231,2231,2231,2231,2231,2231,2231,2231,182,182,182,182,182,182,182,182,1537,1537,1537,1537,1537,1537,1537,1537,7009,7009,7009,7009,7009,7009,7009,7009,7009,7009,7009,7009,7009,7009,7009,7009,7009,267,267,267,267,267,267,267,267,267,267,267,267,267,267,267,267,267,267,267,267,267,267,267,2245,2245,2245,2245,2245,2245,2245,2245,6372,6372,6372,6372,6372,6372,6372,6372,6372,5479,5479,5479,5479,5479,5479,5479,5479,5066,5066,5066,5066,5066,5066,5066,5066,5066,5066,5066,5987,5987,5987,5987,5987,5987,5987,5987,3311,3311,3311,3311,3311,1568,1568,1568,1568,1568,1568,1568,1568,1273,1273,1273,1273,1273,1273,1273,1273,1273,1273,1273,1273,1273,1273,1273,1273,1273,1273,1273,1273,1273,1273,1273,1322,1322,1322,1322,1322,1322,1322,1322,6727,6727,6727,6727,6727,6727,6727,6727,6727,6727,6727,1578,1578,1578,1578,1578,1578,1578,1578,480,480,480,480,480,480,480,480,5880,5880,5880,5880,5880,5880,5880,5211,5211,5211,5211,5211,5211,5211,5211,1136,1136,1136,1136,1136,1136,1136,1136,46,46,46,46,46,46,46,46,46,46,46,677,677,677,677,677,677,677,677,6049,6049,6049,6049,6049,6049,6049,6049,6049,6049,6049,6049,6049,756,756,756,756,756,756,756,756,4296,4296,4296,4296,4296,4296,4296,4296,3434,3434,3434,3434,3434,3434,3434,3434,6160,6160,6160,6160,6160,6160,6160,6160,6160,2639,2639,2639,2639,2639,2639,2639,2639,6228,6228,6228,6228,6228,6228,6228,6228,6228,6228,3803,3803,3803,3803,3803,3803,3803,3803,6416,6416,6416,6416,6416,6416,6416,6416,6416,6416,6416,6416,6416,6416,6416,6416,6416,6416,6416,6416,6416,6416,6416,5319,5319,5319,5319,5319,5319,6591,6591,6591,6591,6591,6591,6591,6591,5576,5576,5576,5576,5576,5576,5576,5576,2038,2038,2038,2038,2038,2038,2038,2038,3177,3177,3177,3177,3177,3177,3177,3177,5291,5291,5291,5291,5291,5291,5291,5291,3288,3288,3288,3288,3288,3288,3288,3288,2947,2947,2947,2947,2947,2947,2947,2947,2947,2947,2947,5762,5762,5762,5762,5762,5762,5762,5762,5762,6558,6558,6558,6558,6558,6558,6558,6558,6558,6558,6558,5000,5000,5000,5000,5000,5000,5000,5000,440,440,440,440,6174,6174,6174,6174,6174,6174,6174,6174,6174,5013,5013,5013,5013,5013,5013,5013,5013,5013,5013,5013,5013,5013,4466,4466,4466,4466,4466,4466,4466,4466,4466,4466,4466,4466,4466,4466,4466,4466,4466,7335,7335,7335,7335,7335,7335,7335,4349,4349,4349,4349,4349,4349,4349,4349,4349,4349,4349,4349,4349,8506,8506,8506,8506,8506,8506,8506,8506,8506,8506,8506,8506,8506,8506,8506,8506,8506,5343,5343,5343,5343,5343,5343,5343,5343,3532,3532,3532,3532,3532,3532,3532,3532,216,216,216,216,216,216,216,216,216,216,216,216,216,8115,8115,5655,5655,5655,5655,5655,5655,5655,5655,706,706,706,706,706,706,706,706,706,706,706,706,706,706,706,706,706,706,706,706,706,706,706,706,706,706,706,7365,7365,7365,7365,7365,7365,7365,7365,7365,7365,7365,7365,7365,5160,5160,5160,5160,5160,5160,5160,5160,6754,6754,6754,6754,6754,6754,6754,6754,6754,6754,6754,6754,6754,6597,6597,6597,6597,6597,6597,6597,6597,4795,4795,4795,4795,4795,4795,4795,4795,4795,4795,4795,4367,4367,4367,4367,4367,4367,4367,4367,4367,4367,4367,4367,4367,4367,4367,4367,4367,4083,4083,4083,4083,4083,4083,4083,4083,4084,4084,4084,4084,4084,4084,4084,4084,4084,4084,4084,8147,8147,8147,8147,8147,8147,8147,8147,8147,8147,8147,5079,5079,5079,5079,5079,5079,5079,5079,2169,2169,2169,2169,2169,2169,2169,2169,2169,2169,2169,2342,2342,2342,2342,2342,2342,2342,2342,3748,3748,3748,3748,3748,3748,3748,3748,6522,6522,6522,6522,6522,6522,6522,6522,534,534,534,534,534,534,534,6271,6271,6271,6271,6271,6271,6271,6271,6271,6271,6271,8021,8021,8021,8021,8021,8021,8021,8021,2424,2424,2424,2424,2424,2424,2424,2424,2424,2424,2424,2424,2424,2424,2424,2424,2424,2424,2424,2424,2424,2424,2424,2424,2424,2424,2424,2580,2580,2580,2580,2580,2580,2580,2580,4823,4823,4823,4823,4823,4823,4823,4823,7077,7077,7077,7077,7077,7077,7077,7077,3230,3230,3230,3230,3230,3230,3230,3230,5170,5170,5170,5170,5170,5170,5170,5170,5170,5170,5170,1060,1060,1060,1060,813,813,813,813,813,813,813,813,7434,7434,7434,7434,7434,7434,7434,7434,7434,7434,7434,7434,7434,5316,5316,5316,5316,5316,5316,5316,5316,3062,3062,3062,3062,3062,3062,3062,3062,3062,3062,3062,3062,3062,2413,2413,2413,2413,2413,2413,2413,2413,5609,5609,5609,5609,5609,5609,5609,5609,1920,1920,1920,1920,1920,1920,1920,1920,1920,1920,1920,1920,1920,1920,1920,1920,1920,1920,1920,1920,1920,1920,1920,5520,5520,5520,5520,5520,5520,5520,5520,4922,4922,4922,4922,4922,4922,4922,4922,4317,4317,4317,4317,4317,4317,4317,4317,4317,4317,4317,946,946,946,946,946,946,946,946,2399,2399,2399,2399,2399,2399,2399,2399,2399,2399,2399,2399,2399,1781,1781,1781,1781,1781,1781,1781,1781,227,227,227,227,227,227,227,227,6577,6577,6577,6577,4753,4753,4753,4753,4753,5282,5282,5282,5282,5282,5282,5282,5282,5282,5282,5282,5282,5282,5357,5357,5357,5357,5357,5357,5357,5357,8312,8312,8312,8312,8312,8312,8312,8312,8312,8312,8312,4939,4939,4939,4939,4939,4939,4939,4939,4629,4629,4629,4629,4629,5141,5141,5141,5141,5141,5141,5141,5141,5141,5141,5141,5141,5141,5141,5141,5141,5141,540,540,540,540,540,540,540,540,4044,4044,4044,4044,4044,4044,4044,4044,2792,2792,2792,2792,2792,2792,2792,2792,8117,8117,8117,8117,8117,8117,8117,8117,8117,8117,8117,7157,7157,7157,7157,7157,7157,7157,7157,7157,7157,7157,7157,7157,7157,7157,7157,7157,2965,2965,2965,2965,2965,2965,2965,2965,8352,8352,8352,8352,8352,8352,8352,8352,8352,8352,8352,8352,8352,5090,5090,5090,5090,5090,5090,5090,5090,5090,5090,5090,5090,5090,5090,5090,5090,5090,2927,2927,2927,2927,2927,2927,2927,2927,8046,8046,8046,8046,8046,8046,8046,8046,8046,8046,8046,8046,8046,1694,1694,1694,1694,1694,1694,1694,1694,1586,1586,1586,1586,1586,1586,1586,1586,1586,1586,1586,1586,1586,1586,1586,1586,1586,1586,1586,1586,1586,1586,1586,8171,8171,8171,3534,3534,3534,3534,3534,3534,3534,3534,3909,3909,3909,3909,3909,3909,3909,3909,3909,3909,3909,3909,3909,4533,4533,4533,4533,4533,4533,4533,4533,6887,6887,6887,6887,6887,6887,6887,6887,6887,6887,6887,5117,5117,5117,5117,5117,5117,5117,5117,5117,5117,5117,5117,5117,5117,5117,5117,5117,5134,5134,5134,5134,5134,5134,5134,1179,1179,1179,1179,1179,1179,1179,1179,1179,1179,1179,2657,2657,2657,2657,2657,2657,2657,2657,2657,2657,2657,4880,4880,4880,4880,4880,4880,4880,4880,5,5,5,5,5,5,5,5,7178,7178,7178,7178,7178,7178,7178,7178,7178,7178,7178,7178,7178,7178,7178,7178,7178,7178,7178,7178,7178,7178,7178,7037,7037,7037,7037,7037,7037,7037,7037,7037,7037,7037,4758,4758,4758,4758,4758,4758,4758,4758,7564,7564,7564,7564,7564,7564,7564,7564,7564,7564,7564,7387,7387,7387,7387,7387,7387,7387,7387,7387,7387,7387,7071,7071,7071,7071,7071,7071,7071,7071,7071,7071,7071,4611,4611,4611,4611,4611,4611,4611,4611,4611,4611,4611,4611,1959,1959,1959,1959,1959,1959,1959,1959,5031,5031,5031,5031,5031,5031,5031,5031,5031,5031,5031,5483,5483,5483,5483,5483,5483,5483,5483,5483,5483,5483,3065,3065,3065,3065,3065,3065,3065,3065,5292,5292,5292,5292,5292,5292,5292,5292,5292,5292,5292,5292,5292,7484,7484,7484,7484,7484,7484,7484,7484,7484,7484,7484,1180,1180,1180,1180,1180,1180,1180,1180,1354,1354,1354,1354,1354,1354,1354,1354,1354,1354,1354,1354,1354,1270,1270,1270,1270,1270,1270,1270,1270,5896,5896,5896,5896,5896,5896,5896,5896,2937,2937,2937,2937,2937,2937,2937,2937,1872,1872,1872,1872,1872,1872,1872,1872,1872,1872,1872,3571,3571,3571,3571,3571,3571,3571,3571,4530,4530,4530,4530,4530,4530,4530,4530,4530,4530,4530,4530,4530,4530,4530,4530,4530,4530,3464,3464,3464,3464,3464,3464,3464,3464,3464,3464,3464,3464,3464,4485,4485,4485,4485,4485,4485,4485,4485,6308,6308,6308,6308,6308,6308,6308,6308,6308,6308,7719,7719,7719,7719,7719,7719,7719,7719,7719,7719,7719,8388,8388,8388,8388,8388,8388,8388,8388,8388,8388,8388,8388,8388,8388,8388,8388,8388,8388,8388,8388,8388,8388,8388,8148,8148,8148,8148,8148,8148,8148,8148,8148,8148,8148,7665,7665,7665,7665,7665,7665,7665,7665,7665,7665,7665,7665,7665,5642,5642,5642,5642,5642,5642,5642,5642,5642,5642,5642,5642,5642,6818,6818,6818,6818,6818,6818,6818,6818,6818,6818,6818,6818,6818,6818,6818,6818,6818,6818,6818,6818,6818,6818,6818,3387,3387,3387,3387,3387,3387,3387,3387,5675,5675,5675,5675,5675,5675,5675,5675,5675,5675,5687,5687,5687,5687,5687,5687,5687,5687,5687,5687,5687,2217,2217,2217,2217,2217,2217,2217,2217,2217,2217,2217,2217,2217,3910,3910,3910,3910,3910,154,154,154,154,154,154,154,154,154,154,154,154,154,3702,3702,3702,3702,3702,3702,3702,3702,8112,8112,8112,8112,8112,8112,8112,8112,8112,8112,8112,8112,8112,7763,7763,7763,7763,7763,7763,7763,7763,7646,7646,7646,7646,7646,7646,7646,7646,47,47,47,47,47,47,47,47,296,296,296,296,296,296,296,296,2906,2906,2906,2906,2906,2906,2906,2906,2906,2906,2906,2906,2906,2906,2906,2906,2906,7216,7216,7216,7216,7216,7216,7216,7216,7216,7216,7216,1419,1419,1419,1419,1419,1419,1419,1419,1419,1419,1419,1419,1419,2122,2122,2122,2122,2122,2122,2122,2122,8491,8491,8491,8491,8491,8491,8491,8491,8491,8491,8491,8491,8491,8491,8491,8491,8491,8491,8491,8491,8491,8491,8491,7602,7602,7602,7602,7602,7602,7602,7602,7602,7602,7602,7602,7602,7602,7602,7602,7602,7602,7602,7602,7602,7602,7602,2689,2689,2689,2689,2689,2689,2689,2689,2689,2689,2689,6969,6969,6969,6969,6969,6969,6969,6969,6969,6969,6969,6969,6969,6969,6969,6969,6969,6969,6969,6969,6969,6969,6969,6969,6969,6969,6969,4190,4190,5416,5416,5416,5416,5416,5416,5416,5416,5639,5639,5639,5639,5639,5639,5639,5639,5639,5639,5639,5639,5639,4721,4721,4721,4721,4721,4721,4721,4721,4721,4721,4721,4721,4721,4721,4721,4721,4721,4721,4721,4721,4721,4721,4721,1029,1029,1029,1029,1029,1029,1029,1029,1029,1029,1029,6468,6468,6468,6468,6468,6468,6468,6468,281,281,281,281,281,281,281,281,281,281,281,3707,3707,3707,3707,3707,3707,3707,3707,3707,3707,3707,3707,3707,3707,3707,3707,3707,3707,3707,3707,3707,3707,3707,459,459,459,459,459,459,459,459,3011,3011,3011,3011,3011,3011,3011,3011,3011,3011,3011,3011,3011,5280,5280,5280,5280,5280,5280,5280,5280,5280,5280,5280,5280,5280,6662,6662,6662,6662,6662,6662,6662,6662,6662,6662,6662,6662,6662,136,136,136,136,136,136,136,136,136,136,136,136,136,3895,3895,3895,3895,3895,3895,3895,3895,6581,6581,6581,6581,6581,6581,6581,6581,171,171,171,171,171,171,171,171,1132,1132,1132,1132,1132,1132,1132,1132,1132,1132,1132,3460,3460,3460,3460,3460,3460,3460,3460,3460,3460,3460,304,304,304,304,304,304,304,304,18,18,18,18,18,18,18,18,18,18,18,7163,7163,7163,7163,7163,7163,7163,7163,6823,6823,6823,6823,6823,6823,6823,6823,6823,43,43,43,43,43,43,43,43,3401,3401,3401,3401,3401,3401,3401,3401,6663,6663,6663,6663,6663,6663,6663,6663,6663,6663,6663,964,964,964,964,964,964,964,964,249,249,249,249,249,249,249,249,249,249,249,249,249,249,249,249,249,6368,6368,6368,6368,6368,6368,6368,6368,6368,6368,6368,3635,3635,3635,3635,3635,3635,3635,3635,6141,6141,6141,6141,6141,6141,6141,6141,6141,6141,6141,6429,6429,6429,6429,6429,6429,6429,6429,6429,6429,6429,4835,4835,4835,4835,4835,4835,4835,4835,4835,4835,4835,5567,5567,5567,5567,5567,5567,5567,5567,5567,5567,5567,3733,3733,3733,3733,3733,3733,3733,3733,1442,1442,1442,1442,1442,1442,1442,1442,1442,1442,1442,1442,1442,4601,4601,4601,4601,4601,4601,4601,4601,6529,6529,6529,6529,6529,6529,6529,6529,4342,4342,4342,4342,4342,4342,4342,4342,7128,7128,7128,7128,7128,7128,7128,7128,2989,2989,2989,2989,2989,2989,2989,2989,2989,2989,2989,2989,2989,2989,2989,2989,2989,6010,6010,6010,6010,6010,6010,6010,6010,6010,6010,6010,6010,1910,1910,1910,1910,1910,1910,1910,1910,468,468,468,468,468,468,468,468,3517,3517,3517,3517,3517,3517,3517,3517,1929,1929,1929,1929,1929,1929,1929,1929,1929,1929,1929,1929,1929,695,695,695,695,695,695,695,695,695,695,695,1972,1972,1972,1972,1972,1972,1972,1972,1065,1065,1065,1065,1065,1065,1065,1065,1065,2515,2515,2515,2515,2515,2515,2515,2515,2515,2515,2515,2515,2515,2515,2515,2515,2515,7945,7945,7945,7945,7945,7945,7945,7945,8515,8515,8515,8515,8515,8515,8515,8515,8515,8515,8515,3403,3403,3403,3403,3403,3403,3403,3403,2753,2753,2753,2753,2753,2753,2753,2753,2753,2753,2753,2753,2753,2753,2753,2753,2753,5517,5517,5517,5517,5517,5517,5517,5517,5399,5399,5399,5399,5399,5399,5399,5399,5399,5399,5399,1858,1858,1858,1858,1858,1858,1858,1858,2669,2669,2669,2669,2669,2669,2669,2669,6739,6739,6739,6739,6739,6739,6739,6739,3673,3673,3673,3673,3673,3673,3673,3673,8265,8265,8265,8265,8265,8265,8265,8265,8265,8265,8265,2931,2931,2931,2931,2931,2931,2931,2931,2931,2931,2931,1645,1645,1645,1645,1645,1645,1645,1645,2903,2903,2903,2903,2903,2903,2903,2903,7594,7594,6796,6796,6796,6796,6796,6796,6796,6796,44,44,44,44,44,44,44,44,3566,3566,3566,3566,3566,3566,3566,3566,3566,3566,3566,3566,3566,25,25,25,25,25,25,25,25,5658,5658,5658,5658,5658,5658,5658,5658,5658,5658,5658,6195,6195,6195,6195,6195,6195,6195,6195,6195,6195,6195,6195,2285,2285,2285,2285,2285,2285,2285,2285,2285,2285,2285,3246,3246,3246,3246,3246,3246,3246,3246,1792,1792,1792,1792,1792,1792,1792,1792,8431,8431,8431,8431,8431,8431,8431,8431,8431,8431,8431,8497,8497,8497,8497,8497,8497,8497,8497,8497,8497,8497,2359,2359,2359,2359,2359,2359,2359,2359,3218,3218,3218,3218,3218,3218,3218,3218,4480,4480,4480,4480,4480,4480,4480,4480,5419,5419,5419,5419,280,280,280,280,280,280,280,280,3224,3224,3224,3224,3224,3224,3224,3224,3224,3224,3224,6633,6633,6633,6633,6633,6633,6633,6633,3056,3056,3056,5887,5887,5887,5887,5887,5887,5887,5887,5887,5887,5887,4339,4339,4339,4339,4339,4339,4339,4339,3405,3405,3405,3405,3405,3405,3405,3405,3405,3405,3405,3405,3405,3405,3405,3405,3405,3405,3405,3405,3405,3405,3405,5693,5693,5693,5693,5693,5693,5693,5693,5693,7581,7581,7581,7581,7581,7581,7581,7581,3513,3513,3513,3513,3513,3513,3513,3513,3513,3513,3513,2085,2085,2085,2085,2085,2085,2085,2085,1341,1341,1341,1341,1341,1341,1341,1341,1341,1341,1341,1341,1341,7830,7830,7830,802,802,802,802,802,802,802,802,6056,6056,6056,6056,6056,6056,6056,6056,6056,6056,6056,6056,6056,6056,6056,6056,6056,6056,6056,6056,6056,6056,6056,6056,6056,6056,6056,3522,3522,3522,3522,3522,3522,3522,3522,222,222,222,222,222,222,222,222,7131,7131,7131,7131,7131,7131,7131,7131,7131,7131,7131,899,899,1435,1435,1435,1435,1435,1435,1435,1435,1435,1435,1435,6414,6414,6414,806,806,806,806,806,806,806,806,806,806,806,3505,3505,3505,3505,3505,3505,3505,3505,3505,3505,3505,3505,3505,3505,3505,3505,3505,3505,3505,3505,3505,3505,3505,3156,3156,3156,3156,3156,3156,3156,3156,1149,1149,1149,1149,1149,1149,1149,1149,7023,7023,7023,7023,7023,7023,7023,7023,7023,7023,7023,7023,2839,2839,2839,2839,2839,2839,2839,2839,2839,2839,2839,3890,3890,3890,6329,6329,6329,6329,6329,6329,6329,6329,6329,6329,3783,3783,3783,3783,3783,3783,3783,3783,2077,2077,2077,2077,2077,2077,2077,2077,4168,4168,4168,4168,4168,4168,4168,4168,2347,2347,2347,2347,2347,2347,2347,2347,2347,2347,2347,6578,6578,6578,6578,6578,6578,6578,6578,106,106,106,106,106,106,106,106,106,106,106,106,106,3974,3974,3974,3974,3974,3974,3974,3974,3341,3341,3341,3341,3341,3341,3341,3341,3341,3341,3341,3341,3341,6996,6996,6996,6996,6996,6996,6996,6996,6996,6996,6996,7949,7949,7949,7949,7949,7949,7949,7949,7949,7949,7949,7949,7949,7046,7046,7046,7046,7046,7046,7046,7046,3685,3685,3685,3685,3685,3685,3685,3685,1933,1933,1933,1933,1933,1933,1933,1933,651,651,651,651,651,651,651,651,651,651,651,651,651,651,651,651,651,1287,1287,1287,1287,1287,1287,1287,1287,1287,1287,1287,7942,7942,7942,7942,7942,7942,7942,7942,7832,7832,7832,7832,7832,7832,7832,7832,7832,7832,7832,7013,7013,7013,7013,7013,7013,7013,7013,7013,7013,7013,2693,2693,2693,2693,2693,2693,2693,2693,2693,2693,2693,2693,2693,2693,2693,2693,2693,2693,2693,2693,2693,2693,2693,2693,2693,2693,2693,7377,7377,7377,7377,7377,7377,7377,7377,238,238,238,238,6447,6447,6447,6447,6447,6447,6447,6447,4709,4709,4709,4709,4709,4709,4709,4709,4709,4709,4709,3778,3778,3778,3778,3778,3778,3778,3778,7215,7215,7215,7215,7215,7215,7215,7215,7011,7011,7011,7011,7011,7011,7011,7011,23,23,23,23,23,23,23,23,23,23,23,6139,6139,6139,6139,6139,6139,6139,6139,6139,6139,6139,6139,6139,6139,6139,1219,1219,1219,1219,1219,1219,1219,1219,1219,1219,1219,645,645,645,645,645,645,645,645,645,645,645,1365,1365,1365,1365,1365,1365,1365,1365,1365,1365,1365,5050,5050,5050,5050,5050,5050,5050,5050,1199,1199,1199,1199,1199,1199,1199,1199,6641,6641,6641,6641,6641,6641,6641,6641,6641,6641,6641,8232,8232,8232,8232,8232,8232,8232,8232,8232,8232,8232,8232,8232,8232,8232,8232,8232,5025,5025,5025,5025,5025,5025,5025,5025,5025,5025,5025,2929,2929,2929,2929,2929,2929,2929,2929,2073,2073,2073,2073,1152,1152,1152,1152,1152,1152,1152,1152,1152,1152,1152,1152,1152,2090,2090,2090,2090,2090,2090,2090,2090,2090,2090,2090,4097,4097,4097,4097,4097,4097,4097,4097,4097,4097,4097,5451,5451,5451,5451,5451,5451,5451,5451,2955,2955,2955,2955,2955,2955,2955,2955,1141,1141,1141,1141,1141,1141,1141,1141,3270,3270,3270,3270,3270,3270,3270,3270,3270,3270,3270,687,687,687,687,687,687,687,687,687,687,687,3173,3173,3173,3173,3173,3173,3173,3173,3173,3173,3173,7558,7558,7558,7558,7558,7558,7558,7558,5695,5695,5695,5695,5695,5695,5695,5695,5695,5695,5695,3583,3583,3583,3583,3583,3583,3583,3583,6616,6616,6616,6616,6616,6616,6616,6616,2875,2875,2875,2875,2875,2875,2875,2875,2875,2875,2875,2875,2875,2875,2875,2875,2875,7685,7685,7685,7685,7685,7685,7685,7685,7685,7685,7685,4979,4979,4979,4979,4979,4979,4979,4979,4979,4979,4979,4979,4979,4979,4979,4979,4979,4979,4979,4979,4979,4979,4979,7918,7918,7918,7918,7918,7918,7918,7918,7918,7918,7918,7918,7918,7918,7918,7918,7918,5496,5496,5496,5496,5496,5496,5496,5496,5496,5496,5496,5496,5496,5496,5496,5496,5496,5014,5014,5014,5014,5014,5014,5014,5014,5014,5014,5014,5596,5596,5596,5596,5596,5596,5596,5596,5596,5596,5596,5596,5596,5596,5596,5596,5596,7067,7067,7067,7067,7067,7067,7067,7067,7067,7067,7067,7067,7067,7067,7067,7067,7067,7067,7067,7067,7067,7067,7067,148,148,148,148,148,148,148,148,4595,4595,4595,4595,4595,4595,4595,4595,4595,4595,4595,4595,4595,3087,3087,3087,3087,3087,3087,3087,3087,5285,5285,5285,5285,5285,5285,5285,5285,8141,8141,8141,8141,8141,8141,8141,8141,8141,8141,8141,8141,8141,8141,8141,3606,3606,3606,3606,3606,3606,3606,3606,5142,5142,5142,5142,5142,5142,5142,5142,3393,3393,3393,3393,3393,3393,3393,3393,3819,3819,3819,3819,3819,3819,3819,3819,3819,3819,3819,1846,1846,1846,1846,1846,1846,1846,1846,8062,8062,8062,8062,8062,8062,8062,8062,8062,8062,8062,8062,8062,8062,8062,8062,8062,8062,8062,8062,8062,8062,8062,8062,8062,8062,8062,2834,2834,2834,2834,2834,2834,2834,2834,2834,2834,2834,3058,3058,3058,3058,3058,3058,3058,3058,2601,2601,2601,2601,2601,2601,2601,2601,2601,2601,2601,1025,1025,1025,1025,1025,1025,1025,1025,1025,1025,1025,1025,1025,1025,1025,1025,1025,6295,6295,6295,6295,6295,6295,6295,6295,6295,6295,2244,2244,2244,2244,2244,2244,2244,2244,2244,2244,2244,8240,8240,8240,8240,8240,8240,8240,8240,8240,8240,8240,8242,8242,8242,8242,8242,8242,8242,8242,3698,3698,3698,3698,3698,3698,3698,3698,6620,6620,6620,6620,6620,6620,6620,6620,3553,3553,3553,3553,3553,3553,3553,3553,6957,6957,6957,6957,6957,6957,6957,6957,2127,2127,2127,2127,2127,2127,2127,2127,80,80,80,80,80,80,80,80,80,80,80,80,80,80,80,80,80,309,309,309,309,309,309,309,309,309,309,309,680,680,680,680,680,680,680,680,3653,3653,3653,3653,3653,3653,3653,3653,3314,3314,3314,3314,3314,5135,5135,5135,5135,5135,5135,5135,5135,6718,6718,6718,6718,6718,6718,6718,6718,5923,5923,5923,5923,5923,5923,5923,5923,5923,5923,5923,2677,2677,2677,2677,1696,1696,1696,1696,1696,1696,1696,1696,519,519,519,519,519,519,519,519,519,519,519,519,519,8285,8285,8285,8285,8285,8285,8285,8285,3452,3452,3452,3452,3452,3452,3452,3452,611,611,611,611,611,611,611,611,611,611,611,6171,6171,6171,6171,6171,6171,6171,6171,6171,6171,6171,6171,2584,2584,2584,2584,2584,2584,2584,2584,7562,7562,7562,7562,7562,7562,7562,7562,7562,7562,7562,7562,7562,7562,7562,7562,7562,7562,7562,7562,7562,7562,7562,7562,7562,7562,7562,4162,4162,4162,4162,4162,4162,4162,4162,583,583,583,583,583,583,583,583,583,583,583,4892,4892,4892,4892,4892,4892,4892,4892,4892,4892,596,596,596,1614,1614,1614,1614,1614,1614,1614,1614,1614,1614,1614,1614,1614,1614,8273,8273,8273,8273,8273,4210,4210,4210,4210,4210,4210,4210,4210,4210,4210,4210,4210,4210,4210,4210,4210,4210,1225,1225,1225,1225,1225,1225,1225,1225,1225,1225,1225,4081,4081,4081,4081,4081,4081,4081,4081,4081,4081,4081,4586,4586,4586,4586,4586,4586,4586,4586,4586,4586,4586,4586,4586,2658,2658,2658,19,19,19,19,19,19,19,19,19,19,19,5035,5035,5035,5035,5035,5035,5035,5035,5035,5035,5035,5035,5035,5035,5035,5035,5035,8058,8058,8058,8058,8058,8058,8058,8058,8058,8058,8058,1366,1366,1366,1366,1366,1366,1366,1366,60,60,60,60,60,60,60,60,60,60,60,6898,6898,6898,6898,6898,6898,6898,6898,6898,6898,6898,1629,1629,1629,1629,1629,1629,1629,1629,2222,2222,2222,2222,2222,2222,2222,2222,2222,2222,2222,503,503,503,503,503,7417,7417,7417,7417,7417,7417,7417,7417,1513,1513,1513,1513,1513,1513,1513,1513,5847,5847,5847,5847,5847,5847,5847,5847,5847,5847,5847,5832,5832,5832,5832,5832,5832,5832,5832,5832,3295,3295,3295,3295,3295,3295,3295,3295,4613,4613,4613,4613,4613,4613,4613,4613,4613,4613,4613,4613,4613,4613,4613,4613,4613,5054,5054,5054,5054,5054,5054,5054,5054,7650,7650,7650,7650,7650,7650,7650,7650,7580,7580,7580,7580,7580,7580,7580,7580,7580,7580,7580,1950,1950,1950,1950,4115,4115,4115,4115,4115,4115,4115,4115,3142,3142,3142,3142,3142,3142,3142,3142,1824,1824,1824,1824,1824,1824,1824,1824,1824,1824,1824,7691,7691,7691,7691,7691,7691,7691,7691,36,36,36,36,36,36,36,36,36,36,36,36,36,36,36,36,36,336,336,336,336,336,336,336,336,336,336,336,336,336,336,336,336,336,336,336,336,336,336,336,926,926,926,926,926,926,926,926,926,926,926,6070,6070,6070,6070,6070,6070,6070,6070,6070,6070,6070,6645,6645,6645,6645,6645,6645,6645,6645,4858,4858,4858,4858,4858,4858,4858,4858,2211,2211,2211,2211,2211,2211,2211,2211,2211,2211,2211,6885,6885,6885,6885,6885,6885,6885,6885,4444,4444,4444,4444,4444,4444,4444,4444,3800,3800,3800,3800,3800,3800,3800,3800,1761,1761,1761,1761,1761,1761,1761,1761,8450,8450,8450,8450,8450,8450,8450,8450,8450,8450,8450,8450,8450,3,3,3,3,3,3,3,3,3,3,3,3,3,4669,4669,4669,4669,4669,4669,4669,4669,5632,5632,5632,5632,5632,5632,5632,5632,5632,7206,7206,7206,7206,7206,7206,7206,7206,4108,4108,4108,4108,4108,4108,4108,4108,4108,4108,4108,4108,4108,4108,4108,4108,4108,7641,7641,7641,7641,7641,7641,7641,7641,7641,7641,7641,7641,7641,7641,7641,7641,7641,2678,2678,2678,2678,2678,2678,2678,2678,2678,2678,2678,2678,2678,2678,2678,2678,2678,2678,2678,2678,2678,2678,2678,4187,4187,4187,4187,4187,4187,4187,4187,8426,8426,8426,8426,8426,8426,8426,8426,8426,8426,8426,8255,8255,8255,8255,8255,8255,8255,8255,8255,8255,8255,2714,2714,2714,2714,2714,4676,4676,4676,4676,4676,4676,4676,4676,2212,2212,2212,2212,2212,2212,2212,2212,2212,2212,2212,954,954,954,954,954,954,954,954,5701,5701,5701,5701,5701,5701,5701,5701,490,490,490,490,490,490,490,490,6531,6531,6531,6531,6531,6531,6531,6531,6531,6531,6531,6531,6531,6531,6531,6531,6531,6531,6531,6531,6531,6531,6531,6595,6595,6595,6595,6595,6595,6595,6595,6595,6595,6595,3444,3444,3444,3444,3444,3444,3444,3444,3588,3588,3588,3588,3588,3588,3588,3588,8195,8195,8195,8195,8195,8195,8195,8195,870,870,870,870,870,870,870,870,6808,6808,6808,6808,6808,6808,6808,6808,6808,6808,6808,6808,6808,6808,6808,6808,6808,458,458,458,458,458,458,458,458,6420,6420,6420,6420,6420,6420,6420,6420,6420,6642,6642,6642,6642,6642,6642,6642,6642,5335,5335,5335,5335,5335,5335,5335,5335,5335,5335,5335,6431,6431,6431,6431,6431,6431,6431,6431,6431,6431,6431,6247,6247,6247,6247,6247,6247,6247,6247,6247,6247,6247,6247,1522,1522,1522,1522,1522,1522,1522,1522,5682,5682,5682,5682,5682,5682,5682,5682,5682,5682,5682,5682,7492,7492,7492,7492,451,451,451,451,451,451,451,451,2135,2135,2135,2135,2135,2135,2135,2135,2135,2135,2135,2135,2135,2135,2135,2135,2135,1007,1007,1007,1007,1007,1007,1007,1007,1007,3486,3486,3486,3486,3486,3486,3486,3486,404,404,404,1384,1384,1384,1384,1384,1384,1384,1384,2324,2324,2324,2324,2324,2324,2324,2324,2324,2324,2324,2324,2324,3014,3014,3014,3014,3014,3014,3014,3014,3014,3014,3014,3120,3120,3120,3120,3120,3120,3120,3120,6686,6686,6686,6686,6686,6686,6686,6686,6686,6686,6686,6686,6686,2617,2617,2617,2617,2617,2617,2617,2617,7458,7458,7458,7458,7458,7458,7458,7458,4327,4327,4327,4327,4327,4327,4327,4327,1606,1606,1606,1606,1606,4506,4506,4506,4506,4506,4506,4506,4506,3586,3586,3586,3586,3586,3586,3586,3586,6123,6123,6123,6123,6123,6123,6123,6123,7955,7955,7955,7955,7955,7955,7955,7955,7955,7955,7955,7955,7955,7955,7955,7955,7955,1661,1661,1661,1661,1661,1661,1661,1661,1661,1661,1661,1661,1661,5293,5293,5293,5293,5293,5293,5293,5293,5034,5034,5034,5034,5034,5034,5034,5034,1610,1610,1610,1610,1610,1610,1610,1610,4311,4311,4311,4311,4311,4311,4311,4311,520,520,520,520,520,520,520,520,520,520,520,1364,1364,1364,1364,1364,6849,6849,6849,6849,6849,6849,6849,6849,6849,6849,6849,6849,6849,6849,6849,6849,6849,6849,6849,6849,6849,6849,6849,673,673,673,673,673,673,673,673,5290,5290,5290,5290,5290,5290,5290,5290,3518,3518,3518,3518,3518,3518,3518,3518,3518,3518,3518,1213,1213,1213,1213,1213,1213,1213,1213,5242,5242,5242,5242,5242,5242,5242,5242,5242,5242,5242,6635,6635,6635,6635,6635,6635,6635,6635,484,484,484,484,484,484,484,484,484,484,484,2325,2325,2325,2325,2325,2325,2325,2325,2325,2325,2325,2325,2325,2783,2783,2783,2783,2783,2783,2783,2783,2783,2783,2783,2783,2783,7990,7990,7990,7990,7990,7990,7990,7990,3346,3346,3346,3346,3346,3346,3346,3346,648,648,648,648,648,648,648,648,648,648,648,648,648,648,648,648,648,648,648,648,648,648,648,6703,6703,6703,6703,6703,6703,6703,6703,6703,6703,6703,5603,5603,5603,5603,5603,5603,5603,5603,119,119,119,119,119,119,119,119,119,119,119,119,119,119,119,119,119,119,119,119,119,119,119,746,746,746,746,746,746,746,746,746,746,746,746,746,746,746,746,746,6109,6109,6109,6109,6109,6109,6109,6109,6109,6109,6109,6109,6990,6990,6990,6990,6990,6990,6990,6990,6990,6990,6990,6990,6990,6990,6990,6990,6990,6990,6990,6990,6990,6990,6990,6990,6990,6990,6990,3808,3808,3808,3808,3808,3808,3808,3808,6868,6868,6868,6868,6868,6868,6868,6868,6868,6868,6868,6868,6868,7401,7401,7401,7401,7401,7401,7401,7401,7401,7401,7401,7401,7401,7401,7401,7401,7401,2969,2969,2969,2969,2969,2969,2969,2969,6417,6417,6417,6417,6417,6417,6417,6417,5877,5877,5877,5877,5877,5877,5877,5877,5877,5877,5877,5877,1570,1570,1570,1570,1570,1570,1570,1570,1570,1570,1570,6226,6226,6226,6226,6226,6226,6226,6226,6226,6226,6226,830,830,830,830,830,830,830,830,830,830,830,830,830,830,830,830,830,7242,7242,7242,7242,7242,7242,7242,7242,7242,7242,7242,7242,7242,7242,7242,7242,7242,7242,7242,7242,7242,7242,7242,7242,7242,7242,7242,1590,1590,1590,1590,1590,1590,1590,1590,1590,1590,1590,1712,1712,1712,1712,1712,1712,1712,5404,5404,5404,5404,5404,5404,5404,5404,4253,4253,4253,4253,4253,4253,4253,4253,4253,4253,4253,1254,1254,1254,1254,1254,1254,1254,1254,796,796,796,796,796,796,796,796,7057,7057,7057,7057,7057,7057,7057,7057,7057,7057,7057,7057,7057,7057,7057,7057,7057,4064,4064,4064,4064,4064,4064,4064,4064,4372,4372,4372,4372,4372,4372,4372,4372,1580,1580,1580,1580,1580,1580,1580,1580,1580,1580,1580,5011,5011,5011,5011,5011,5011,5011,5011,5011,5011,5011,5245,5245,5245,5245,5245,5245,5245,5245,4074,4074,4074,4074,4074,4074,4074,4074,7246,7246,7246,7246,7246,7246,7246,7246,7246,7246,7246,4771,4771,4771,4771,4771,4771,4771,4771,7961,7961,7961,7176,7176,7176,7176,7176,7176,7176,7176,7176,7176,7176,6523,6523,6523,6523,6523,6523,6523,6523,6523,6523,6523,7802,7802,7802,7802,7802,7802,3257,3257,3257,3257,3257,3257,3257,3257,3257,3257,3257,3257,3257,3257,3257,3257,3257,3257,3257,3257,3257,3257,3257,5391,5391,5391,5391,5391,5391,5391,5391,5391,5391,5391,5391,5391,3745,3745,3745,3745,3745,3745,3745,3745,3745,3745,3745,3745,3745,3363,3363,3363,3363,3363,3363,3363,3363,4632,4632,4632,4632,4632,4632,4632,4632,8472,8472,8472,8472,8472,8472,8472,8472,8472,8472,8472,8001,8001,8001,8001,8001,8001,8001,8001,1826,1826,1826,1826,1826,1826,1826,1826,1826,1826,1826,1826,1826,1826,1826,1826,1826,5452,5452,5452,5452,5452,5452,5452,5452,5452,5452,5452,5452,5452,5452,5452,5452,5452,5452,5452,5452,5452,5452,5452,3556,3556,3556,3556,3556,3556,3556,3556,3111,3111,3111,3111,3111,3111,3111,3111,3111,3111,3111,5342,5342,5342,5342,5342,5342,5342,5342,5342,5342,5342,916,916,916,916,916,916,916,916,916,916,916,3928,3928,3928,3928,3928,3928,3928,3928,7778,7778,7778,7778,7778,7778,7778,7778,7778,7778,7778,5261,5261,5261,5261,5261,5261,5261,5261,3256,3256,3256,3256,3256,3256,3256,3256,5030,5030,5030,5030,5030,5030,5030,5030,5030,5030,5030,5030,5030,5030,2885,2885,2885,2885,2885,2885,2885,2885,2885,2885,2885,2885,2885,2885,2885,2885,2885,3611,3611,3611,3611,3611,3611,3611,3611,3611,3611,3611,58,58,58,58,58,58,58,58,58,58,58,58,58,58,58,58,58,3067,3067,3067,3067,3067,3067,3067,3067,3067,3067,3067,3067,3067,3067,3067,3903,3903,3903,3903,3903,3903,3903,3903,3903,3903,3903,3903,3903,3903,3903,3903,3903,3903,3903,3903,3903,3903,3903,3868,3868,3868,3868,3868,3868,3868,3868,3868,3868,3868,1058,1058,1058,1058,1058,1058,1058,5197,5197,5197,5197,5197,5197,5197,5197,1066,1066,1066,1066,1066,1066,1066,1066,4729,4729,4729,4729,4729,4729,4729,4729,6453,6453,6453,6453,6453,6453,6453,6453,6453,6453,6453,8422,8422,8422,8422,8422,8422,8422,8422,4779,4779,4779,4779,4779,4779,4779,4779,4779,4779,4779,7187,7187,7187,7187,7187,7187,7187,7187,7187,7187,7187,7187,7187,7187,7187,7187,1036,1036,1036,6827,6827,6827,6827,6827,6827,6827,6827,4112,4112,4112,4112,4112,4112,4112,4112,4112,4112,4112,5112,5112,5112,5112,5112,5112,5112,5112,5112,5112,5112,101,101,101,101,101,101,101,101,101,101,101,101,101,8300,8300,8300,8300,8300,8300,8300,8300,8300,8300,8300,2533,2533,2533,2533,2533,2533,2533,2533,8303,8303,8303,8303,8303,8303,8303,8303,8303,8303,8303,8303,8303,3083,3083,3083,3083,3083,3083,3083,3083,1450,1450,1450,1450,1450,1450,1450,1450,1359,1359,1359,1359,1359,1359,1359,1359,6991,6991,6991,6991,6991,6991,6991,6991,6991,6991,1764,1764,1764,1764,1764,1764,1764,1764,1764,1764,1764,1764,1764,8231,8231,220,220,1061,1061,1061,1061,1061,1061,1061,1061,7185,7185,7185,7185,7185,7185,7185,7185,4733,4733,4733,4733,4733,4733,4733,4733,4733,4733,4733,4733,4733,4733,4733,4733,4733,4733,4733,4733,4733,4733,4733,5273,5273,5273,5273,5273,5273,2409,2409,2409,2409,2409,2409,2409,2409,2409,2409,2409,6639,6639,6639,6639,6639,6639,6639,6639,3569,3569,3569,3569,3569,3569,3569,3569,6140,6140,6140,6140,6140,6140,6140,6140,6140,6140,6140,1056,1056,1056,1056,1056,1056,1056,1056,1056,1056,1056,1056,1056,1056,1056,1056,1056,1056,1056,1056,1056,1056,1056,6574,6574,6574,6574,6574,6574,6574,6574,7231,7231,7231,7231,7231,7231,7231,7231,1220,1220,1220,1220,1220,1220,1220,1220,4619,4619,4619,4619,4619,4619,4619,4619,1067,1067,1067,1067,1067,1067,1067,1067,1067,1067,1067,1067,1067,1067,1067,1067,1067,1067,1067,1067,1067,1067,1067,6,6,6,6,6,6,6,6,2590,2590,2590,2590,2590,2590,2590,2590,3085,3085,3085,3085,3085,3085,7271,7271,7271,7271,7271,7271,7271,7271,867,867,867,867,867,867,867,867,867,867,867,6469,6469,6469,6469,6469,6469,6469,6469,7751,7751,7751,7751,7751,7751,7751,7751,7751,7751,7751,1154,1154,1154,1154,1154,1154,1154,1154,7186,7186,7186,7186,7186,7186,7186,7186,7186,7186,7186,7186,7186,7186,7186,7186,7186,7186,7186,7186,7186,7186,7186,1469,1469,1469,1469,1469,1469,1469,1469,821,821,821,821,821,821,821,821,4208,4208,4208,4208,4208,4208,4208,4208,4208,4208,4208,166,166,1968,1968,1968,1968,1968,1968,1968,1968,5510,5510,5510,5510,5510,5510,5510,5510,5510,5510,5510,5510,5510,7072,7072,7072,7072,7072,7072,7072,7072,2076,2076,2076,2076,2076,2076,2076,2076,2076,2076,2076,4216,4216,4216,4216,4216,4216,4216,4216,4216,4216,5371,5371,5371,5371,5371,5371,5371,5371,7286,7286,7286,7286,7286,7286,7286,7286,7286,7286,7286,7286,7286,7286,7286,7286,7286,510,510,510,510,510,510,510,510,510,510,510,3432,3432,3432,3432,3432,3432,3432,3432,5486,5486,5486,5486,5486,5486,5486,5486,5486,5486,5486,5486,5486,5486,5486,5486,5486,3784,3784,3784,3784,3784,3784,3784,3784,6322,6322,6322,6322,6322,6322,6322,6322,6322,6322,6322,5348,5348,5348,5348,5348,5348,5348,5348,6921,6921,6921,6921,6921,6921,6921,6921,1800,1800,1800,1800,1800,1800,1800,1800,1800,1800,1800,6812,6812,6812,6812,6812,6812,6812,6812,1012,1012,1012,1012,1012,1012,1012,1012,1012,1012,1012,1012,1012,1306,1306,1306,1306,1306,1306,1306,1306,1306,1306,1306,1306,1306,1306,1306,1306,1306,4437,4437,4437,4437,4437,4437,4437,4437,4598,4598,4598,4598,4598,4598,4598,4598,29,29,29,29,29,29,29,29,29,29,29,29,29,29,29,29,29,29,29,29,29,29,29,2204,2204,2204,2204,2204,2204,2204,2204,2204,2204,2204,194,194,194,194,194,194,1987,1987,1987,1987,1987,1987,1987,1987,5239,5239,5239,5239,5239,5239,5239,5239,4234,4234,4234,4234,4234,4234,4234,4234,193,193,193,193,193,193,193,193,1088,1088,1088,1088,1088,1088,1088,1088,4738,4738,4738,4738,4738,4738,4738,4738,8114,8114,8114,8114,8114,8114,8114,8114,4237,4237,4237,4237,4237,4237,4237,4237,4237,4237,4237,3018,3018,3018,3018,3018,3018,3018,3018,6786,6786,6786,6786,6786,6786,6786,6786,2926,2926,2926,2926,2926,2926,2926,2926,8519,8519,8519,8519,8519,8519,8519,8519,8519,8519,8519,8519,8519,8519,8519,8519,8519,8519,8519,8519,8519,8519,8519,5264,5264,5264,5264,5264,5264,5264,5264,5264,5264,5264,5264,5264,1392,1392,1392,1392,1392,1392,1392,1392,4528,4528,4528,4528,4528,4528,4528,4528,4528,4528,4528,6069,6069,6069,6069,6069,6069,6069,6069,6866,6866,6866,6866,6866,6866,4247,4247,4247,4247,4247,4247,4247,4247,7180,7180,7180,7180,7180,7180,7180,7180,4284,4284,4284,4284,4284,4284,4284,5705,5705,5705,5705,5705,5705,5705,5705,6076,6076,6076,6076,6076,6076,6076,6076,6076,6076,5199,5199,5199,5199,5199,5199,5199,5199,5199,5199,5199,5199,5199,629,629,629,629,629,92,92,8120,8120,8120,8120,8120,8120,8120,8120,3206,3206,3206,3206,3206,3206,3206,3206,5036,5036,5036,5036,5036,5036,5036,5036,5036,5036,5036,4536,4536,4536,4536,4536,4536,4536,4536,3570,3570,3570,3570,3570,3570,3570,3570,3570,3570,3570,1172,1172,1172,1172,1172,1172,1172,1172,1172,1172,1172,1172,1172,1172,1172,1172,1172,1172,1172,1172,1172,1172,1172,7717,7717,7717,7717,7717,7717,7717,7717,7717,7717,7717,7717,7717,7717,7717,7717,7717,7717,7717,7717,7717,7717,7717,7717,7717,7717,7717,1674,1674,1674,1674,1674,1674,1674,1674,5473,5473,5473,5473,5473,5473,5473,5473,4816,4816,4816,4816,4816,4816,4816,4816,3873,3873,3873,3873,3873,3873,3873,3873,2522,2522,2522,2522,2522,2522,2522,2522,700,700,700,700,700,700,2884,2884,2884,2884,2884,2884,2884,2884,2884,2884,2884,3694,3694,3694,3694,3694,3694,3694,3694,6061,6061,6061,6061,6061,6061,6061,6061,6061,6061,6061,6061,6061,6061,6061,6061,7642,7642,7642,7642,7642,7642,7642,7642,7642,7642,7642,7642,7642,7951,7951,7951,7951,7951,7951,7951,7951,7951,7951,7951,6339,6339,6339,6339,6339,6339,6339,6339,6339,6339,6339,4483,4483,4483,4483,4483,4483,4483,7776,7776,7776,7776,7776,7776,7776,7776,7776,7776,7776,7776,7776,7776,7776,7776,7776,7776,7776,7776,7776,7776,7776,1281,1281,1281,1281,1281,1281,1281,1281,6915,6915,6915,6915,6915,6915,6915,6915,6915,6915,6915,6915,6915,6915,6915,6915,6915,6915,6915,6915,6915,6915,6915,1371,1371,1371,1371,1371,1371,1371,1371,5678,5678,5678,5678,5678,5678,5678,5678,5678,5678,5678,5678,5678,5678,5678,5678,5678,5678,5678,5678,5678,5678,5678,8419,8419,8419,8419,8419,8419,8419,8419,1073,1073,1073,1073,1073,1073,1073,1073,2762,2762,2762,2762,2762,2762,2762,2762,4503,4503,4503,4503,4503,4503,4503,4503,771,771,771,771,771,771,771,771,771,771,771,771,771,2065,2065,2065,2065,2065,2065,2065,2065,2065,2065,2065,2065,5647,5647,5647,5647,5647,5647,5647,5647,5647,5647,5647,5647,5647,5647,5647,127,127,127,127,127,127,127,127,127,6971,6971,6971,6971,6971,6971,6971,6971,1514,1514,1514,1514,1514,1514,1514,1514,1514,1514,1514,1514,1514,1514,1514,1514,1514,1514,1514,6272,6272,6272,6272,6272,6272,6272,6272,6272,6272,6272,6272,6272,6272,7507,7507,7507,7507,7507,7507,7507,7507,2602,2602,2602,2602,2602,2602,2602,2602,6131,6131,6131,6131,6131,6131,6131,6131,6131,6131,6131,6131,6131,6131,5915,5915,5915,5915,5915,5915,5915,5915,5915,5915,5915,5915,5915,5915,8074,8074,8074,8074,8074,8074,8074,8074,8074,8074,8074,8074,8074,8074,8074,8074,6074,6074,6074,6074,6074,6074,6074,6074,6074,6074,5800,5800,5800,5800,5800,5800,5800,5800,5800,5800,5800,5800,1796,1796,1796,1796,1796,1796,1796,1796,8140,8140,8140,8140,8140,8140,8140,8140,575,575,575,575,575,575,575,575,3560,3560,3560,3560,3560,3560,3560,3560,2779,2779,2779,2779,2779,2779,2779,2779,2779,2779,2779,2779,2779,2779,2779,2779,2779,2779,2779,2779,2779,2779,6505,6505,6505,6505,6505,6505,6505,6505,5497,5497,5497,5497,5497,5497,5497,5497,1395,1395,1395,1395,1395,1395,1395,1395,6335,6335,6335,6335,6335,6335,6335,6335,2939,2939,2939,2939,2939,2939,2939,2939,405,405,405,405,405,405,405,405,405,405,405,405,405,405,405,405,405,405,405,405,405,405,405,7730,7730,7730,7730,7730,7730,7730,7730,7730,7730,7730,4005,4005,4005,4005,4005,4005,4005,4005,2675,2675,2675,2675,2675,2675,2675,2675,2675,2675,2675,4454,4454,4454,4454,4454,4454,4454,4454,3983,3983,3983,3983,3983,3983,3983,3983,3983,3983,3983,3983,3983,3983,3983,3983,3983,948,948,948,948,948,948,948,948,1449,1449,1449,1449,1449,1449,1449,1449,1449,1449,1449,1449,1449,3923,3923,3923,3923,3923,3923,3923,3923,3923,3923,3923,3572,3572,3572,3572,3572,3572,3572,3572,3608,3608,3608,3608,3608,3608,3608,3608,3608,3608,3608,7529,7529,7529,7529,7529,7529,7529,7529,598,598,598,598,598,598,598,598,2002,2002,2002,2002,2002,2002,2002,2002,2002,2002,2002,3825,3825,3825,3825,3825,3825,3825,3825,3825,3825,3825,5166,5166,5166,5166,5166,5166,2353,2353,2353,2353,2353,2353,2353,2353,8360,8360,8360,8360,8360,8360,8360,8360,8360,8360,8360,5210,5210,5210,5210,5210,5210,3481,3481,3481,3481,3481,556,556,556,556,556,556,556,556,556,6593,6593,6593,6593,6593,6593,6593,6593,6593,2406,2406,2406,2406,2406,2406,2406,2406,2801,2801,2801,2801,2801,2801,2801,2801,2801,2801,2801,6513,6513,6513,6513,6513,6513,6513,6513,6513,6513,6513,7777,7777,7777,7777,7777,7777,7777,7777,5184,5184,5184,5184,5184,5184,5184,5184,2679,2679,2679,2679,2679,2679,2679,2679,2679,2679,2679,379,379,379,379,379,379,379,379,7464,7464,7464,7464,7464,7464,7464,7464,7464,7464,7464,5295,5295,5295,5295,5295,5295,5295,5295,8500,8500,8500,8500,8500,8500,8500,8500,8500,8500,8500,8500,8500,8500,8500,8500,8500,8500,8500,8500,8500,8500,8500,3775,3775,3775,3775,3775,3775,3775,3775,7119,7119,7119,7119,7119,7119,7119,7119,6960,6960,6960,6960,6960,6960,6960,6960,1358,1358,1358,1358,1358,1358,1358,1358,1358,1358,1358,1358,1358,1358,1358,1358,1358,6148,6148,6148,6148,6148,6148,6148,6148,6148,6148,6148,712,712,712,712,712,712,7217,7217,7217,7217,7217,7217,7217,7217,7217,7217,7217,7217,7217,7217,7217,7217,7217,7217,7217,7217,7217,7217,7217,7217,7217,7217,7217,2968,2968,2968,2968,2968,2968,2968,2968,482,482,482,482,482,482,482,482,1545,1545,1545,1545,1545,1545,1545,1545,1545,1545,1545,8099,8099,8099,8099,8099,8099,8099,8099,2319,2319,2319,2319,2319,2319,2319,2319,2319,2319,2319,2319,2319,2319,2319,2319,2319,2319,2319,2319,2319,2319,2319,4490,4490,4490,4490,4490,4490,4490,4490,4490,4490,4490,1992,1992,1992,1992,1992,1992,1992,1992,7449,7449,7449,7449,7449,7449,7449,7449,7449,7449,7449,7449,7449,7449,7449,7449,7449,7449,7449,7449,7449,7449,7449,2772,2772,2772,2772,2772,2772,2772,2772,7920,7920,7920,7920,7920,7920,7920,7920,7920,7920,7920,132,132,132,132,132,132,132,132,132,132,132,7397,7397,7397,7397,7397,7397,7397,7397,8258,8258,8258,8258,8258,8258,8258,8258,7566,7566,7566,7566,7566,7566,7566,6088,6088,6088,6088,6088,6088,6088,6088,6088,6088,6088,1889,1889,1889,1889,1889,1889,1889,1889,1889,1889,1889,1889,1889,1889,1889,1889,1889,1889,1889,1889,1889,1889,1889,1437,1437,1437,1437,1437,1437,1437,1437,1437,1437,1437,4702,4702,4702,4702,4702,4702,4702,4702,7225,7225,7225,7225,7225,7225,7225,7225,7225,7225,7225,7225,7225,7225,7225,5131,5131,5131,5131,5131,5131,5131,5131,5131,5131,5131,1051,1051,1051,1051,1051,1051,1051,1051,1051,1051,1051,1051,1051,5270,5270,5270,5270,5270,5270,5270,5270,1121,1121,1121,1121,1121,1121,1121,1121,1121,1121,1121,1121,1121,1121,1121,1121,1121,2491,2491,2491,2491,2491,2491,2491,2491,2491,7908,7908,7908,7908,7908,7908,7908,7908,2787,2787,2787,2787,2787,2787,2787,2787,2787,2787,2787,2787,2787,2787,2787,2787,2787,7871,7871,7871,7871,7871,7871,7871,7871,7871,7871,7871,7871,7871,7871,7871,7871,7871,5941,5941,5941,5941,5941,5941,5941,5941,5941,5941,5941,5941,5941,5941,5941,8101,8101,8101,8101,8101,8101,8101,8101,8101,8101,8101,8101,8101,8101,8101,8101,8101,3274,3274,3274,3274,3274,3274,3274,3274,3274,3274,3274,5815,5815,5815,5815,5815,5815,5815,5815,8390,8390,8390,8390,8390,8390,8390,8390,8390,8390,8390,8390,8390,8390,8390,8390,8390,8390,8390,8390,8390,5965,5965,5965,5965,5965,5965,5965,5965,5965,5965,5965,1363,1363,2956,2956,2956,2956,2956,2956,2956,2956,6516,6516,6516,6516,6516,6516,6516,6516,6516,6516,6516,6516,6516,6516,6516,6516,6516,6516,6516,6516,6516,6516,6516,7998,7998,7998,7998,7998,7998,7971,7971,7971,7971,7971,7971,7971,7971,1643,1643,1643,1643,1643,1643,1643,1643,2855,2855,2855,2855,2855,2855,2855,6457,6457,6457,6457,6457,6457,6457,6457,606,606,606,606,606,606,606,606,5599,5599,5599,5599,5599,5599,5599,5599,5599,5599,5599,5839,5839,5839,5839,5839,5839,5839,5839,5839,5839,5839,5839,1117,1117,1117,1117,1117,1117,1117,1117,1704,1704,1704,1704,1704,1704,1704,1704,7549,7549,7549,7549,7549,7549,7549,7549,7549,7549,7549,6214,6214,6214,6214,6214,6214,6214,6214,6214,6214,3954,3954,3954,3954,3954,3954,3954,3954,2310,2310,2310,2310,2310,2310,2310,2310,2310,2310,2310,1652,1652,1652,1652,1652,1652,1652,1652,1652,1652,1652,2248,2248,1265,1265,1265,1265,1265,1265,1265,1265,1630,1630,1630,1630,1630,1630,1630,1630,5652,5652,5652,5652,5652,5652,5652,5652,5652,5652,5652,8455,8455,8455,8455,8455,8455,8455,8455,8455,7931,7931,7931,7931,7931,7931,7931,7931,7931,7931,7931,7931,7931,7931,7931,7931,7931,6799,6799,4770,4770,4770,4770,4770,4770,4770,4770,4770,4770,4770,4770,4770,2199,2199,2199,2199,2199,2199,2199,2199,7818,7818,7818,7818,7818,7818,7818,7818,4648,4648,4648,4648,4648,4648,4648,4648,4648,4648,4648,4648,4648,4648,4648,4648,4648,5771,5771,5771,5771,5771,5771,5771,5771,5771,5771,5771,7302,7302,7302,7302,7302,7302,7302,7302,1046,1046,1046,1046,1046,1046,1046,1046,571,571,571,571,571,571,571,571,571,571,8356,8356,8356,8356,8356,8356,8356,8356,4035,4035,4035,4035,4035,4035,4035,4035,4952,4952,4952,4952,4952,4952,4952,4952,5149,5149,5149,5149,5149,5149,5149,5149,5149,5149,5149,5149,5149,5149,5149,5149,5149,5149,5149,5149,5149,5149,5149,1940,1940,1940,1940,1940,1940,1940,1940,1940,1940,1940,1940,1940,7966,7966,7966,8076,8076,8076,8076,8076,8076,8076,8076,2092,2092,2092,2092,2092,2092,2092,2092,6958,6958,6958,6958,6958,6958,6958,6958,7357,7357,7357,7357,7357,7357,7357,7357,7357,7357,7357,7082,7082,7082,7082,7082,7082,7082,7082,7082,7082,7082,753,753,753,753,753,753,753,753,753,753,753,7740,7740,7740,7740,7740,7740,7740,7740,7740,7740,7740,3875,3875,3875,3875,3875,3875,3875,3875,4790,4790,4790,4790,4790,4790,4790,4790,3980,3980,3980,3980,3980,3980,3980,3980,4542,4542,4542,4542,4542,4542,4542,4542,4300,4300,4300,4300,4300,4300,4300,4300,6063,6063,6063,6063,6063,6063,6063,6063,6063,6063,6063,1769,1769,1769,6813,6813,6813,6813,6813,6813,6813,6813,4942,4942,4942,3715,3715,3715,3715,3715,3715,3715,3715,6189,6189,6189,6189,6189,6189,6189,6189,6189,6189,6189,6189,6189,3661,3661,3661,3661,3661,3661,3661,3661,8015,8015,8015,8015,8015,8015,8015,8015,3012,3012,3012,3012,3012,3012,3012,3012,3012,3012,3012,3012,3012,5041,5041,5041,5041,5151,5151,5151,5151,5151,5151,5151,5151,1140,1140,1140,1140,1140,1140,1140,1140,5982,5982,5982,5982,5982,5982,5982,5982,5982,5982,5982,3704,3704,3704,3704,3704,3704,3704,3704,3704,3704,3704,3704,3704,3704,3704,3704,3704,3704,3704,3704,3704,3704,3704,637,637,637,637,637,637,637,637,637,637,637,8192,8192,8192,8192,8192,8192,8192,8192,8192,8192,8192,8192,8192,884,884,884,884,884,884,884,884,884,884,884,884,884,6406,6406,6406,6406,6406,6406,6406,6406,6451,6451,6451,6451,6451,6451,6451,6451,6451,6451,6451,6451,6451,6451,6451,6451,6451,6451,6451,6451,6451,6451,6451,4186,4186,4186,4186,4186,4186,4186,4186,4214,4214,4214,4214,4214,4214,4214,4214,4214,4214,4214,553,553,553,553,553,553,553,553,553,553,553,3725,3725,3725,3725,3725,3725,3725,3725,3514,3514,3514,3514,3514,3514,3514,3514,8517,8517,8517,8517,8517,8517,8517,8517,5116,5116,5116,5116,5116,5116,5116,5116,2995,2995,2995,2995,2995,2995,2995,2995,3817,3817,3817,3817,3817,3817,3817,3817,3900,3900,3900,3900,3900,3900,3900,3900,2364,2364,2364,2364,2364,2364,7782,7782,7782,7782,7782,7782,7782,7782,6366,6366,6366,6366,6366,6366,6366,6366,6366,6366,6366,3041,3041,3041,3041,3041,3041,3041,3041,3041,3041,3041,1197,1197,1197,1197,1197,1197,1197,1197,1197,1197,1197,1197,1197,1197,1197,1197,1197,1197,1197,1197,1197,1197,1197,1197,1197,1197,1197,8063,8063,8063,8063,8063,8063,8063,8063,8063,8063,8063,8063,8063,4227,4227,4227,4227,4227,4227,4227,4227,4227,4227,4227,8368,8368,8368,8368,8368,8368,8368,8368,8368,8368,8368,8368,8368,8368,8368,8368,8368,4246,4246,4246,4246,4246,4246,4246,4246,3669,3669,3669,3669,3669,3669,3669,3669,3669,3669,3669,3669,3669,2745,2745,2745,2745,2745,2745,2745,2745,5616,5616,5616,5616,5616,5616,5616,5616,5616,5616,5616,5616,5616,5616,5616,7895,7895,7895,7895,7895,7895,7895,7895,7895,7895,7895,7895,7895,7651,7651,7651,7651,7651,7651,7651,7651,3174,3174,3174,3174,3174,3174,3174,3174,3174,3174,3174,3174,3174,3174,3174,3174,3174,4768,4768,4768,4768,4768,5722,5722,5722,5722,5722,5722,5722,5722,5718,5718,5718,5718,5718,5718,5718,5718,5718,3607,3607,3607,3607,3607,3607,3607,3607,7533,7533,7533,7533,7533,7533,7533,7533,5770,5770,5770,5770,5770,5770,5770,5770,5770,5770,5770,5764,5764,5764,5764,5764,5764,5764,5764,5764,5764,5764,5764,5269,5269,5269,5269,5269,5269,5269,5269,5269,5269,5269,5269,5269,8345,8345,8345,8345,8345,8345,8345,8345,4764,4764,4764,4764,4764,4764,4764,4764,1247,1247,1247,1247,1247,1247,1124,1124,1124,1124,1124,1124,1124,1124,4821,4821,4821,4821,4821,4821,4821,4821,4821,4821,4821,5776,5776,5776,5776,5776,5776,5776,5776,5776,3515,3515,3515,3515,3515,3515,3515,3515,3515,3515,3515,7703,7703,7703,7703,7703,7703,7703,7703,3971,3971,3971,3971,3971,3971,3971,3971,2549,2549,2549,2549,2549,2549,2549,2549,2549,2549,1288,1288,1288,1288,1288,1288,1288,1288,5736,5736,5736,5736,5736,5736,5736,5736,5736,5736,1632,1632,1632,1632,1632,1632,1632,1632,1632,1632,1632,6809,6809,6809,6809,6809,6809,6809,6809,1646,1646,1646,1646,1646,1646,1646,1646,1646,1646,1646,6630,6630,6630,6630,6630,6630,6630,6630,6630,6630,6630,6630,6630,3421,3421,3421,3421,3421,3421,3421,3421,3421,3421,3421,6793,6793,6793,6793,6793,6793,6793,6793,6793,6793,6793,6793,6793,6793,6793,6793,6793,6793,6793,6793,6793,6793,6793,7455,7455,7455,7455,7455,7455,7455,7455,7455,7455,7455,1192,1192,1192,1192,1192,1192,1192,1192,1192,1192,1192,7718,7718,7718,7718,7718,7718,7718,7718,2962,2962,2962,2962,2962,2962,2962,2962,2962,2962,2962,2962,2962,2962,2962,2962,2962,2962,2962,2962,2962,2962,2962,5862,5862,5862,5862,5862,5862,5862,5862,5862,5862,5862,5862,5862,5862,5862,5862,3880,3880,3880,3880,3880,3880,3880,3880,6315,6315,6315,6315,6315,6315,6315,6315,6315,8513,8513,8513,7860,7860,7860,7860,7860,7860,7860,7860,5649,5649,5649,5649,5649,5649,5649,5649,5649,4541,4541,4541,4541,4541,4541,4541,4541,4541,4541,4541,4541,4541,4541,4541,4541,4541,1549,1549,1549,1549,1549,1549,1549,1549,1549,1549,1549,1549,1549,1549,1549,1549,1549,1549,1549,1549,1549,1549,1549,1549,1549,1549,1549,604,604,604,604,604,604,604,604,604,604,604,3981,3981,3981,3981,3981,3981,3981,3981,3981,3981,3981,3981,3981,3981,3981,2908,2908,2908,2908,2908,2908,3935,3935,3935,3935,3935,3935,3935,3935,3935,3935,3935,2233,2233,2233,2233,2233,2233,2233,2233,2537,2537,2537,2537,2537,2537,2537,2537,2537,2537,2537,2537,2537,793,793,793,793,793,793,793,793,1059,1059,1059,1059,1059,1059,1059,1059,8080,8080,8080,8080,8080,8080,8080,8080,8080,8080,8080,5817,5817,5817,5817,5817,5817,5817,5817,5817,5817,5817,5817,5817,5817,5817,5817,5817,5817,5817,5817,5817,5817,5817,586,586,586,586,586,586,586,586,586,586,586,586,586,586,586,586,586,586,586,586,586,586,586,586,586,586,586,1930,1930,1930,1930,1930,1930,1930,1930,1930,1930,1930,1930,1930,1930,1930,1930,1930,8048,8048,8048,8048,8048,8048,8048,8048,1207,1207,1207,1207,1207,1207,1207,1207,1054,1054,1054,1054,1054,1054,1054,1054,1054,1054,1054,5382,5382,5382,5382,5382,5382,5382,5382,5382,5382,5382,3009,3009,3009,3009,3009,3009,3009,3009,3009,3009,3009,2891,2891,2891,2891,2891,2891,2891,2891,2891,2891,2891,2891,2891,526,526,526,526,526,526,526,526,5137,5137,5137,5137,5137,5137,5137,5137,5137,5137,5137,5137,5137,5137,5137,5137,5137,5137,5137,5137,5137,5137,5137,5137,5137,5137,5137,5667,5667,5667,5667,5667,5667,5667,5667,3184,3184,3184,3184,3184,3184,3184,3184,3184,3184,3184,3184,3184,643,643,643,643,643,643,643,643,3284,3284,3284,3284,3284,3284,3284,3284,8382,8382,8382,8382,8382,8382,8382,8382,8382,8382,8382,5725,5725,5725,5725,5725,5725,5725,5725,5725,5725,5725,5725,5725,5725,5725,1587,1587,1587,1587,1587,1587,1587,1587,1587,1587,1587,4008,4008,4008,4008,4008,4008,4008,4008,386,386,386,386,386,386,386,386,2322,2322,2322,2322,2322,2322,2322,2322,2322,2322,2322,2322,2322,1601,1601,1601,1601,1601,1601,1601,1601,1601,1601,1601,7164,7164,7164,7164,7164,7164,7164,7164,1474,1474,1474,1474,1474,1474,1474,1474,1474,1474,1474,1714,1714,1714,1714,1714,1714,7353,7353,7353,7353,7353,7353,7353,7353,5016,5016,5016,5016,5016,5016,5016,5016,5016,5016,5016,1880,1880,1880,1880,1880,1880,1880,1880,4036,4036,4036,4036,4036,546,546,546,7574,7574,7574,7574,7574,7574,7574,7574,6342,6342,6342,6342,6342,6342,6342,6342,6342,6342,6342,6342,6342,6342,6342,6342,4414,4414,4414,4414,4414,4414,4414,4414,4414,4414,4414,5560,5560,5560,5560,5560,5560,5560,5560,6207,6207,6207,6207,6207,6207,6207,6207,6207,6207,6207,6207,6207,6207,6207,6207,6207,6207,6396,6396,6396,6396,6396,6396,6396,6396,6396,6396,6396,6396,6396,4388,4388,4388,4388,4388,4388,4388,4388,4388,4388,4388,4388,4388,4388,4388,4388,4388,2933,2933,2933,2933,2933,2933,2933,2933,2933,2933,2933,2933,2933,2933,2933,2933,2933,2933,2933,2933,2933,2933,2933,4522,4522,4522,4522,4522,4522,4522,4522,2030,2030,2030,2030,2030,2030,2030,2030,2030,2030,2030,4662,4662,4662,4662,4662,4662,4662,4662,4662,4662,4662,423,423,423,423,423,423,423,423,2727,2727,2727,2727,2727,2727,2727,2727,6223,6223,6223,6223,6223,6223,6223,6223,667,667,667,667,667,667,667,667,667,667,667,667,667,667,667,667,667,4909,4909,4909,4909,4909,4909,1837,1837,1837,1837,1837,1837,1837,1837,1837,1837,1837,1551,1551,1551,1551,1551,1551,1551,1551,1551,1551,1551,2323,2323,2323,2323,2323,2323,2323,2323,7995,7995,7995,7995,7995,7995,7995,7995,7995,7995,7995,4750,4750,4750,4750,4750,4750,4750,4750,5059,5059,5059,5059,5059,5059,5059,5059,5059,5059,5059,1951,1951,1951,1951,1951,4109,4109,4109,2240,2240,2240,2240,2240,2240,2240,2240,446,446,446,446,446,446,446,446,6325,6325,6325,6325,6325,6325,6325,6325,6325,4273,4273,4273,4273,437,437,437,437,437,7422,7422,7422,7422,7422,7422,7422,7422,7422,7422,7422,7422,4312,4312,4312,4312,4312,4312,4312,4312,4312,4312,4312,4312,4312,4312,4312,4312,4312,4695,4695,4695,4695,4695,4695,4695,4695,4695,4695,4695,4695,4695,4695,4695,4695,4695,3449,3449,3449,3449,3449,3449,3449,3449,1820,1820,1820,1820,1820,1820,1820,1820,1099,1099,1099,1099,1099,1099,1099,1099,1099,1099,1099,1099,1099,1099,1099,1099,1099,1099,1099,1099,1099,1099,1099,1770,1770,1770,1770,1770,1770,1770,1770,1770,1770,1770,1770,1770,1770,1770,1770,1770,1282,1282,1282,1282,1282,1282,1282,1282,5942,5942,5942,5942,5942,5942,5942,5942,5942,5942,5942,5942,6096,6096,6096,6096,6096,6096,6096,6096,3925,3925,3925,3925,3925,3925,3925,3925,5515,5515,5515,5515,3626,3626,3626,3626,3626,3626,3626,3626,1544,1544,1544,1544,1544,1544,1544,1544,6146,6146,6146,6146,6146,6146,6146,6146,2080,2080,2080,2080,2080,2080,2080,2080,2080,2080,2080,2080,2080,2080,2080,2080,3760,3760,3760,3760,3760,3760,3760,3760,739,739,739,739,739,739,739,739,739,739,739,7265,7265,7265,7265,7265,7265,7265,7265,4408,4408,4408,4408,4408,4408,4408,4408,4408,4408,4408,4408,4408,4408,4408,4408,4408,1672,1672,1672,1672,1672,1672,1672,5558,5558,5558,5558,5558,5558,5558,5558,6120,6120,6120,6120,6120,6120,6120,6120,6120,6120,6120,6120,5813,5813,5813,5813,5813,5813,5813,5813,5813,895,895,895,895,895,895,895,895,895,6363,6363,6363,6363,6363,6363,6363,6363,1618,1618,1618,1618,1618,1618,1618,1618,1618,1618,1618,1618,1618,179,179,179,179,179,179,179,179,4293,4293,4293,4293,4293,4293,4293,4293,2276,2276,2276,2276,2276,2276,2276,2276,3845,3845,3845,3845,3845,3845,3845,3845,3845,3845,3845,3812,3812,3812,3812,3812,3812,3812,3812,37,37,37,37,37,37,37,37,37,37,37,1879,1879,1879,1879,1879,1879,1879,1879,1879,1879,1879,5384,5384,5384,5384,5384,5384,5384,5384,3272,3272,3272,3272,3272,3272,3272,3272,3272,3272,3272,3272,3272,2854,2854,2854,2854,2854,2854,2854,2854,4362,4362,4362,4362,4362,4362,4362,4362,4362,4362,4362,4362,4362,4362,4362,4362,5183,5183,5183,5183,5183,5183,5183,5183,7597,7597,7597,7597,7597,7597,7597,7597,4517,4517,4517,4517,4517,4517,4517,4517,7797,7797,7797,7797,7797,7797,7797,7797,2106,2106,2106,2106,2106,2106,2106,2106,2106,2106,2106,2106,2106,2106,2106,2106,2106,2106,2106,2106,2106,2106,2106,1555,1555,1555,1555,1555,1555,1555,1555,4025,4025,4025,4025,4025,4025,4025,4025,7838,7838,7838,7838,7838,7838,7838,7838,3216,3216,3216,4091,4091,4091,4091,4091,4091,4091,4091,6839,6839,6839,6839,6839,6839,6839,6839,271,271,271,271,271,271,271,271,7490,7490,7490,7490,7490,7490,7490,7490,1511,1511,1511,1511,1511,1511,1511,1511,8277,8277,8277,8277,8277,8277,8277,8277,8277,8277,8277,6203,6203,6203,6203,6203,6203,6203,6203,6702,6702,6702,6702,6702,6702,6702,6702,1078,1078,1078,1078,1078,1078,1078,1078,1078,1078,1078,1078,1078,7228,7228,7228,7228,7228,7228,7228,7228,7228,7228,7228,7311,7311,7311,7311,4477,4477,4477,6897,6897,6897,6897,6897,6897,6897,6897,6897,6897,6897,6897,6897,6897,6897,6897,6897,6897,6897,6897,6897,6897,6897,6897,6897,6897,6897,6058,6058,6058,6058,6058,6058,6058,6058,6058,6058,6058,6058,6058,6058,6058,6058,6058,1146,1146,1146,1146,1146,1146,1146,1146,5312,5312,5312,5312,5312,5312,5312,5312,2747,2747,2747,2747,2747,2747,2747,2747,2747,2747,2747,4949,4949,4949,4949,4949,4949,4949,4949,10,10,10,10,10,10,10,10,6166,6166,6166,6166,6166,6166,6166,6166,6166,415,415,415,415,415,415,415,415,7959,7959,7959,7959,7959,7959,7959,7959,5083,5083,5083,5083,5083,5083,5083,5083,6565,6565,6565,6565,6565,6565,6565,6565,3188,3188,3188,3188,3188,3188,3188,3188,3188,3188,3188,3188,3188,3188,3188,3188,3188,2659,2659,2659,2659,2659,2659,2659,2659,1719,1719,1719,1719,1719,1719,1719,1719,1719,1719,1719,4767,4767,4767,4767,4040,4040,4040,4040,4040,4040,4040,4040,1400,1400,1400,1400,1400,1400,1400,1400,7542,7542,7542,7542,7542,7542,7542,7542,6114,6114,6114,6114,6114,6114,6114,6114,6114,6114,6114,6114,6114,6114,6114,6114,6114,8298,8298,8298,8298,8298,8298,8298,8298,8298,8298,8298,7579,7579,7579,7579,7579,7579,7579,7579,7579,7579,7579,7579,7579,7579,7579,7579,7579,7579,7579,7579,7579,7579,7579,803,803,803,803,803,803,803,803,4389,4389,4389,4389,4389,4389,4389,4389,6030,6030,6030,6030,6030,6030,6030,6030,6030,7457,7457,7457,7457,7457,7457,7457,7457,6926,6926,6926,6926,6926,6926,6926,6926,6365,6365,6365,6365,6365,6365,6365,6365,6132,6132,6132,6132,6132,6132,6132,6132,6132,6132,1699,1699,1699,1699,1699,1699,1699,1699,7021,7021,7021,7021,7021,7021,7021,7021,2221,2221,2221,2221,2221,2221,2221,4054,4054,4054,4054,4054,4054,4054,4054,4054,4054,4054,4129,4129,4129,4129,4129,4129,4129,4129,4129,4129,4129,7537,7537,7537,7537,7537,7537,7537,7537,6751,6751,6751,6751,6751,3988,3988,3988,3581,3581,3581,3581,3581,3581,3581,3581,3581,3581,3581,3581,3581,3581,3581,3581,3581,3581,3581,3581,3581,3581,3581,1720,1720,1720,1720,1720,1720,1720,1720,1391,1391,1391,1391,1391,1391,1391,1391,2732,2732,2732,2732,2732,2732,2732,2732,2732,2732,2732,5337,5337,5337,5337,5337,5337,5337,5337,4252,4252,4252,4252,4252,4252,4252,4252,615,615,615,615,615,615,615,615,2934,2934,2934,2934,2934,2934,2934,2934,3489,3489,3489,3489,3489,3489,3489,3489,3489,3489,3489,4731,4731,4731,4731,4731,4731,4731,4731,4731,4731,4731,1386,1386,1386,1386,1386,1386,1386,1386,4732,4732,4732,4732,4732,4732,4732,4732,4732,4732,4732,4732,4732,4732,4732,4732,4732,99,99,99,99,99,99,99,99,99,99,99,5221,5221,5221,5221,5221,5221,5221,5221,7681,7681,7681,7681,7681,7681,7681,7681,6688,6688,6688,6688,6688,6688,6688,6688,7728,7728,7728,7728,7728,7728,7728,7728,5854,5854,5854,5854,5854,5854,5854,5854,5854,5854,5854,85,85,85,85,85,85,85,85,318,318,318,318,318,318,318,318,2417,2417,2417,2417,2417,2417,2417,2181,2181,2181,2181,2181,2181,2181,8031,8031,8031,8031,8031,8031,8031,8031,2709,2709,2709,2709,2709,7411,7411,7411,7411,7411,7411,7411,7411,7508,7508,7508,7508,7508,7508,7508,7508,815,815,4749,4749,4749,4749,4749,4749,4749,4749,4749,4749,4749,1927,1927,1927,1927,1927,1927,1927,1927,1927,1927,1927,335,335,335,335,335,335,335,335,7393,7393,7393,7393,7393,7393,7393,7393,6980,6980,6980,6980,6980,6980,6980,6980,6980,6980,6980,6980,6980,2786,2786,2786,2786,2786,2786,2786,2786,2786,2786,2786,2786,2786,2786,2786,2786,2786,2786,2786,2786,2786,2786,2786,4268,4268,4268,4268,4268,4268,4268,4268,5468,5468,5468,5468,5468,5468,5468,5468,3424,3424,3424,3424,3424,3424,3424,3424,3637,3637,3637,3637,3637,3637,3637,3637,2111,2111,2111,2111,2111,2111,2111,2111,2111,2111,2111,7977,7977,7977,7977,7977,7977,7977,7977,7977,7977,7977,181,181,181,181,181,181,181,181,181,181,181,181,181,181,181,181,181,2882,2882,2882,2882,2882,2882,2882,2882,2882,2882,2882,2882,2882,2882,2882,2882,2882,2882,2882,2882,2882,2882,2882,4321,4321,4321,7710,7710,7710,7710,7710,7710,7710,7710,7710,7710,7710,6283,6283,6283,6283,6283,6283,6283,6283,6283,6283,7647,7647,7647,7647,2144,2144,2144,2144,2144,2144,2144,2144,8135,8135,8135,8135,8135,8135,8135,8135,6724,6724,6724,6724,6724,6724,6724,6724,6724,6724,6724,6724,6724,5735,5735,5735,5735,5735,5735,5735,5735,5735,5735,5735,5735,5735,5735,5735,5735,5735,6678,6678,6678,6678,6678,6678,6678,6678,197,197,197,197,197,197,197,197,197,197,197,8248,8248,8248,8248,8248,8248,8248,8248,8248,8248,8248,8248,8248,8248,8248,8248,8248,8248,8248,8248,8248,8248,8248,4048,4048,4048,4048,4048,4048,4048,4048,4048,4048,4048,1757,1757,1757,1757,1757,1757,1757,1757,1757,1757,1757,1757,1757,1757,1757,1757,1757,6550,6550,6550,6550,6550,6550,316,316,316,316,316,2570,2570,2570,2570,2570,2570,2570,2570,7934,7934,7934,7934,7934,7934,7934,7934,6583,6583,6583,6583,6583,6583,6583,6583,6583,6583,6583,6583,6583,6583,6583,6583,6583,6583,6583,6583,6583,6583,6583,6715,6715,6715,6715,6715,6715,6715,6715,1290,1290,1290,1290,1290,1290,1290,1290,1290,696,696,696,696,696,696,696,696,696,696,696,4961,4961,4961,4961,4961,4961,4961,4961,4961,4961,4961,4295,4295,4295,4295,4295,4295,4295,4295,4295,4295,4295,7654,7654,7654,7654,7654,7654,7654,7654,3818,3818,3818,3818,3818,3818,3818,3818,2951,2951,2951,2951,2951,2951,2951,2951,5837,5837,5837,5837,5837,5837,5837,5837,5837,5837,5837,1291,1291,1291,1291,1291,1291,1291,1291,1291,1291,1291,5522,5522,5522,5522,5522,5522,5522,5522,5522,5522,5522,7147,7147,7147,7147,7147,7147,7147,7147,7147,7147,7147,6846,6846,6846,6846,6846,6846,6846,6846,6846,6846,6846,8068,8068,8068,8068,8068,8068,8068,8068,2450,2450,2450,2450,2450,2450,2450,2450,2450,2450,2450,2450,2450,8105,8105,8105,8105,8105,8105,8105,8105,4404,4404,4404,4404,4404,4404,4404,4404,4270,4270,4270,4270,4270,4270,4270,4270,4270,4270,4270,7879,7879,7879,7879,7879,7879,7879,7879,7879,7879,7879,7559,7559,7559,7559,7559,7559,7559,7559,7559,7559,7559,3617,3617,3617,3617,3617,3617,3617,3617,5187,5187,5187,5187,5187,5187,5187,5187,834,834,834,834,834,834,834,834,834,834,834,1227,1227,1227,1227,1546,1546,1546,1546,1546,1546,1546,1546,6603,6603,6603,6603,6603,6603,6603,6603,5485,5485,5485,5485,5485,5485,5485,5485,5485,5485,5485,5485,5485,5485,5485,5485,5485,5485,5485,5485,5485,5485,5485,5485,5485,5485,5485,7721,7721,7721,7721,7721,7721,7721,7721,7721,7721,7721,7721,7721,6138,6138,6138,6138,6138,6138,6138,6138,4398,4398,4398,4398,4398,4398,4398,4398,5948,5948,5948,5948,5948,5948,5948,5948,5948,3119,3119,3119,3119,3119,3119,3119,3119,3119,3119,3119,3119,3119,3119,3119,3119,3119,823,823,823,823,823,823,823,823,738,738,738,738,738,738,738,738,738,738,738,738,738,3708,3708,3708,3708,3708,3708,3708,3708,882,882,882,882,882,882,882,882,3050,3050,3050,3050,3050,3050,3050,3050,6239,6239,6239,6239,6239,6239,6239,6239,6239,6239,6239,6239,8321,8321,8321,8321,8321,8321,8321,8321,2810,2810,2810,2810,2810,2810,2810,2810,3915,3915,3915,3915,3915,3915,3915,3915,2320,2320,2320,2320,2320,2320,2320,2320,5027,5027,5027,5027,5027,5027,5027,5027,5027,5027,5027,5027,5027,5027,5027,5027,5027,939,939,939,939,939,939,939,939,939,939,939,939,939,939,939,939,939,2197,2197,2197,2197,2197,2197,2197,2197,2883,2883,2883,2883,2883,6338,6338,6338,6338,6338,6338,6338,6338,6338,6338,6338,6338,184,184,184,184,184,184,184,184,4931,4931,4931,1196,1196,1196,1196,1196,1196,1196,1196,327,327,327,327,327,327,327,327,6496,6496,6496,6496,6496,6496,6496,6496,4765,4765,4765,4765,4765,4765,4765,4765,2179,2179,2179,2179,2179,2179,2179,2179,2179,2179,2179,6913,6913,6913,6913,6913,6913,6913,6913,6913,6913,6913,7352,7352,7352,7352,7352,7352,7352,7352,3166,3166,3166,3166,3166,3166,3166,3166,3166,3166,3166,3166,3166,3166,3166,3166,3166,3166,3166,3166,3166,3166,3166,2798,2798,2798,2798,2798,2798,2798,2798,2798,2798,2798,2798,2798,2798,2798,2798,2798,7309,7309,7309,7309,7309,7309,7309,7309,5442,5442,5442,5442,5442,5442,5442,5442,5442,5442,5442,5442,5442,5442,5442,5442,5442,5442,5442,5442,5442,5442,5442,3494,3494,3494,3494,3494,3494,3494,3494,3322,3322,3322,3322,3322,3322,3322,3322,800,800,800,800,800,800,800,800,3169,3169,3169,3169,3169,3169,3169,3169,5303,5303,5303,5303,5303,5303,5303,5303,5303,5303,5303,5303,5303,5303,5303,5303,5303,7620,7620,7620,7620,7620,7620,7620,7620,1137,1137,1137,1137,1137,1137,1137,1137,4049,4049,4049,4049,4049,4049,4049,4049,7815,7815,7815,7815,7815,7815,7815,7815,7815,7815,7815,6180,6180,6180,6180,6180,6180,6180,6180,2286,2286,2286,2286,2286,2286,2286,2286,3373,3373,3373,3373,3373,3373,3373,3373,3373,3373,3373,3373,3373,8288,8288,8288,8288,8288,8288,8288,8288,3995,3995,3995,3995,3995,3995,3995,3995,3995,3995,3995,2270,2270,2270,2270,2270,2270,2270,2270,1181,1181,1181,1181,1181,1181,1181,1181,1181,1181,1181,567,567,567,567,567,567,567,567,7816,7816,7816,7816,7816,7816,7816,7816,3521,3521,3521,3521,3521,3521,3521,3521,5566,5566,5566,5566,5566,5566,5566,5566,8009,8009,8009,8009,8009,8009,8009,8009,8009,8009,8009,5636,5636,5636,5636,5636,5636,5636,5636,5636,5636,5636,5636,5636,5636,5636,2398,2398,2398,2398,2398,2398,2398,2398,2398,2398,2398,4775,4775,4775,4775,4775,4775,4775,4775,2817,2817,2817,2817,2817,2817,2817,2817,2817,2817,2817,6665,6665,6665,6665,6665,6665,6665,6665,6665,6665,6665,6665,6665,1550,1550,1550,1550,1550,1550,1550,1550,7390,7390,7390,7390,7390,7390,7390,7390,5619,5619,5619,5619,5619,5619,5619,5619,5619,5619,5619,8084,8084,8084,8084,8084,8084,7976,7976,7976,7976,7976,7976,7976,7976,7976,7976,7976,1256,1256,1256,1256,1256,2075,2075,2075,2075,2075,2075,2075,2075,3761,3761,3761,3761,3761,3761,3761,3761,3761,3761,3761,3761,3761,3761,3761,3761,3761,2172,2172,2172,2172,2172,2172,2172,2172,931,931,931,931,931,931,931,931,931,931,931,931,931,931,931,931,931,931,931,931,931,931,931,931,931,931,931,7426,7426,7426,7426,7426,7426,7426,7426,8157,8157,8157,8157,3312,3312,3312,3312,3312,3312,3312,3312,5077,5077,5077,5077,5077,5077,5077,5077,5885,5885,5885,5885,5885,5885,5885,5885,5885,5885,5885,4911,4911,4911,4911,4911,4911,4911,4911,4911,4911,4911,4694,4694,4694,4694,4694,4694,4694,4694,5553,5553,5553,5553,5553,5553,5553,5553,992,992,992,992,992,992,992,992,992,992,992,3956,3956,3956,3956,3956,3956,3956,3956,1394,1394,1394,1394,1394,1394,1394,1394,1394,1394,1394,1394,1394,3296,3296,3296,3296,3296,3296,3296,3296,3296,3296,3296,3296,3296,3296,3296,3296,3296,414,414,414,414,414,414,414,414,2975,2975,2975,2975,2975,2975,2975,2975,2975,2975,2975,2728,2728,2728,2728,2728,2728,2728,2728,2728,2728,2728,6263,6263,6263,6263,6263,6263,6263,6263,6263,7674,7674,7674,7674,7674,7674,7674,7674,3220,3220,3220,3220,3220,3220,3220,3220,3220,3220,3220,3220,3220,3220,3220,3220,3220,3220,3220,3220,3220,3220,3220,3220,3220,3220,3220,4497,4497,4497,4497,4497,4497,4497,4497,7256,7256,7256,7256,7256,7256,7256,7256,340,340,340,340,340,340,340,340,3264,3264,3264,3264,3264,3264,3264,3264,3264,3264,3264,3264,3264,3264,3264,3264,3264,4803,4803,4803,4803,4803,4803,4803,4803,4206,4206,4206,4206,4206,4206,4206,4206,4206,4206,4206,4206,4206,2721,2721,2721,2721,2721,2721,2721,2721,2721,2721,2721,2721,2721,4254,4254,4254,4254,4254,8025,8025,8025,8025,8025,8025,8025,8025,3478,3478,3478,3478,3478,3478,3478,3478,1833,1833,1833,1833,1833,1833,1833,1833,1833,1833,1833,1833,1833,1833,1833,1833,1833,1833,1833,1833,1833,1833,1833,139,139,139,139,139,139,139,139,4452,4452,4452,4452,4452,4452,4452,4452,6720,6720,6720,6720,6720,6720,6720,6720,6720,6720,6720,6720,6720,6361,6361,6361,6361,6361,8227,8227,8227,8227,8227,8227,8227,8227,4088,4088,4088,4088,4088,4088,4088,4088,4763,4763,4763,4763,4763,4763,4763,4763,4763,4763,4763,4763,4763,4763,4763,4763,4763,8514,8514,8514,8514,8514,8514,8514,8514,1723,1723,1723,1723,1723,1723,1723,1723,3013,3013,3013,3013,3013,3013,3013,3013,3013,3013,3013,3013,3013,3013,3013,3013,3013,3013,3013,3013,3013,3013,3013,5227,5227,5227,5227,5227,5227,5227,5227,5227,5227,5227,5227,5227,4236,4236,4236,4236,4236,4236,4236,4236,6553,6553,6553,6553,6553,6553,6553,6553,6553,6553,6553,4693,4693,4693,4693,4693,4693,4693,4693,1598,1598,1598,1598,1598,1598,1598,1598,5114,5114,5114,5114,5114,5114,5114,5114,5114,978,978,978,978,978,978,978,978,978,978,978,337,337,337,337,337,337,337,337,4504,4504,4504,4504,4504,4504,4504,4504,7927,7927,7927,7927,7927,7927,7927,7927,7927,7927,7927,7563,7563,7563,7563,7563,7563,7563,7563,7563,7563,7563,5098,5098,5098,5098,5098,5098,5098,5098,5098,5098,5098,1090,1090,1090,1090,1090,1090,1090,1090,1090,1090,1090,1595,1595,1595,1595,1595,1595,1595,1595,5410,5410,5410,5410,5410,5410,5410,5410,5783,5783,5783,5783,5783,5783,5783,5783,5783,5783,5783,5783,5783,5783,5783,5637,5637,5637,5637,5637,5637,5637,5637,5637,5637,5637,4606,4606,4606,4606,4606,4606,4606,4606,4606,4606,4606,714,714,714,714,714,714,714,714,5738,5738,5738,5738,5738,5738,5738,5738,5738,3222,3222,3222,3222,3222,3222,3222,3222,3222,3222,3222,3222,3222,1434,1434,1434,1434,1434,1434,1434,1434,1899,1899,1899,1899,1899,1899,1899,1899,5814,5814,5814,5814,5814,5814,5814,5814,5814,5814,5814,5814,5814,5814,5814,5814,5814,7957,7957,7957,7957,7957,7957,7957,7957,6899,6899,6899,6899,6899,6899,6899,6899,6899,6899,6899,6899,6899,2625,2625,6464,6464,6464,8262,8262,8262,8262,8262,8262,8262,8262,6129,6129,6129,6129,6129,6129,6129,6129,6129,6129,6129,6129,6129,6129,6129,5859,5859,5859,5859,5859,5859,5859,5859,2120,2120,2120,2120,2120,2120,53,53,53,53,53,53,53,53,53,53,53,53,53,5487,5487,5487,5487,5487,5487,5487,5487,4337,4337,4337,4337,8271,8271,8271,8271,8271,8271,8271,8271,6708,6708,6708,6708,6708,6708,6708,6708,7292,7292,7292,1016,1016,1016,1016,1016,1016,1016,5450,5450,5450,5450,5450,5450,5450,5450,1558,1558,1558,1558,1558,1558,1558,1558,6250,6250,6250,6250,6250,6250,6250,6250,6250,6250,6250,107,107,107,107,107,107,107,107,107,107,107,107,107,107,107,107,107,107,107,107,107,107,107,7001,7001,7001,7001,7001,7001,7001,7001,2871,2871,2871,2871,2871,2871,2871,2871,2871,2871,2871,2871,2871,5879,5879,5879,5879,5879,5879,5879,5879,5879,5879,5879,5879,5879,5879,5879,5879,5879,5003,5003,5003,5003,5003,5003,5003,5003,5003,5003,5003,5003,5003,5003,5003,5003,5003,5003,5003,5003,5003,5003,5003,3304,3304,3304,3304,3304,3304,3304,3304,7686,7686,7686,7686,7686,7686,7686,7686,2464,2464,2464,2464,2464,2464,2464,2464,7476,7476,7476,7476,7476,7476,7476,7476,5749,5749,5749,5749,5749,5749,5749,5749,5749,5749,5749,8165,8165,8165,8165,8165,8165,8165,8165,8165,8165,8165,6330,6330,6330,6330,6330,6330,6330,6330,6330,6330,6330,6330,6330,6330,6330,6330,338,338,338,338,338,338,338,338,7195,7195,7195,7195,7195,7195,7195,7195,7195,7195,7195,7195,7195,7195,7195,2148,2148,2148,2148,2148,2148,2148,2148,7862,7862,7862,7862,7862,7862,7862,7862,346,346,346,346,346,346,346,346,7700,7700,7700,7700,7700,7700,7700,7700,7700,1988,1988,1988,1988,1988,1988,1988,1988,3490,3490,3490,3490,3490,3490,3490,3490,5276,5276,5276,5276,5276,5276,5276,5276,418,418,418,418,418,418,418,418,418,418,418,418,418,418,418,418,418,5870,5870,5870,5870,5870,5870,5870,5870,5870,5870,5870,5870,4976,4976,4976,4976,4976,4976,4976,4976,4976,4976,4976,6961,6961,6961,6961,6961,6961,6961,6961,6961,6961,6961,6961,6961,1530,1530,1530,1530,1530,1530,1530,1530,1530,1530,1530,1686,1686,1686,1686,1686,1686,1686,1686,3114,3114,3114,3114,3114,3114,8524,8524,8524,8524,8524,8524,8524,8524,8524,8524,8524,6400,6400,6400,6400,6400,6400,6400,6400,6400,6400,6400,1,1,1,1,1,1,1,1,1753,1753,1753,1753,1753,1753,1753,1753,164,164,164,164,164,164,164,164,5838,5838,5838,5838,5838,5838,5838,5838,1138,1138,1138,1138,1138,1138,1138,1138,1241,1241,1241,1241,1241,1241,1241,1241,5171,5171,5171,5171,5171,5171,5171,5171,5171,5171,5171,5171,5171,5577,5577,5577,5577,5577,5577,5577,5577,5577,5577,5577,5962,5962,5962,5962,5962,5962,5962,5962,3638,3638,3638,3638,3638,3638,3638,3638,4204,4204,4204,4386,4386,4386,4386,4386,4386,4386,4386,4386,4386,4386,251,251,251,251,251,251,251,251,251,251,251,5979,5979,5979,5979,5979,5979,5979,5979,5979,5979,5979,3093,3093,3093,3093,3093,3093,3093,6077,6077,6077,6077,6077,6077,6077,6077,6077,6077,6077,6077,6077,6077,6077,6077,6077,4776,4776,4776,4776,4776,4776,4776,4776,3609,3609,3609,3609,3609,3609,3609,3609,3609,3609,3609,3609,3609,799,799,799,799,799,799,799,799,2246,2246,2246,2246,2246,2246,2246,5200,5200,5200,5200,5200,5200,5200,5200,5200,5200,5200,665,665,665,665,665,665,665,665,665,665,665,665,665,1900,1900,1900,1900,1900,1900,1900,1900,1223,1223,1223,1223,1223,1223,1223,1223,1223,1223,1223,1454,1454,1454,1454,1454,1454,1454,1454,4837,4837,4837,4837,4837,4837,4837,4837,4837,4837,4837,7166,7166,7166,7166,7166,7166,7166,7166,3034,3034,3034,3034,3034,3034,3034,3034,4683,4683,4683,4683,4683,4683,4683,4683,4697,4697,4697,4697,4697,751,751,751,5345,5345,5345,5345,5345,5345,5345,5345,2578,2578,2578,2578,2578,2578,2578,2578,2578,2578,2578,2578,2578,2578,2578,2578,2578,3762,3762,3762,3762,3762,3762,3762,3762,3762,3762,3762,481,481,481,481,481,481,481,481,481,481,481,8476,8476,8476,8476,8476,8476,8476,8476,5895,5895,5895,5895,5895,5895,5895,5895,5895,5895,5895,542,542,542,542,542,542,542,542,2467,2467,2467,2467,2467,2467,7389,7389,7389,7389,7389,7389,7389,7389,6815,6815,6815,6815,6815,6815,6815,6815,6815,6815,6815,2756,2756,2756,2756,2756,2756,2756,2756,2756,2756,2756,2756,2756,2756,2756,2756,2756,2756,2756,2756,2756,2756,2756,2756,2756,2756,2756,7857,7857,7857,7857,7857,7857,7857,7857,6381,6381,6381,6381,6381,6381,6381,6381,3236,3236,3236,3236,3236,3236,3236,3236,7582,7582,7582,7582,7582,7582,7582,7582,7582,7582,7582,8267,8267,8267,8267,8267,8267,8267,8267,8267,8267,8267,7869,7869,7869,7869,7869,7869,7869,7869,8024,8024,8024,8024,8024,8024,8024,8024,8024,8024,8024,8024,8024,7274,7274,7274,7274,7274,7274,7274,7274,7274,7274,7274,7274,7274,7062,7062,7062,7062,7062,7062,7062,7062,7062,7062,7062,7062,7062,7062,7062,7062,7062,7062,7062,7062,7062,7062,7062,7062,7062,7062,7062,1142,1142,1142,1142,1142,1142,1142,1142,5607,5607,5607,5607,5607,6956,6956,6956,6956,6956,6956,6956,6956,2152,2152,2152,2152,2152,2152,2152,2152,2152,2152,2152,3597,3597,3597,3597,3597,3597,3597,3597,3597,3597,3597,8292,8292,8292,8292,8292,8292,8292,8292,8292,8292,8292,8292,8292,8292,8292,8292,8292,8292,8292,8292,8292,8292,8292,8498,8498,8498,8498,8498,8498,8498,8498,8498,8498,8498,1519,1519,1519,1519,1519,1519,1519,1519,3899,3899,3899,3899,3899,3899,3899,3899,6903,6903,6903,6903,6903,6903,6903,6903,6903,6903,6903,4726,4726,4726,4726,6671,6671,6671,6671,6671,6671,6671,6671,3338,3338,3338,3338,3338,5174,5174,5174,5174,5174,5174,1326,1326,1326,1326,1326,1326,1326,1326,1326,1326,1326,6872,6872,6872,6872,6872,6872,6872,6872,2067,2067,2067,2067,2067,2067,2067,2067,2067,2067,2067,8065,8065,8065,8065,8065,8065,8065,8065,8065,8065,8065,8065,8065,8065,8065,8065,8065,4192,4192,4192,4192,4192,4192,4192,4192,8511,8511,8511,8511,8511,8511,8511,8511,3440,3440,3440,3440,3440,3440,3440,3440,616,616,616,616,616,616,616,616,1594,1594,1594,1594,1594,1594,1594,1594,3151,3151,3151,3151,3151,3151,3151,3151,3151,3151,3151,3151,3151,8026,8026,8026,8026,8026,8026,8026,8026,8026,8026,8026,108,108,108,108,108,108,108,108,3223,3223,3223,3223,3223,3223,3223,3223,764,764,764,764,764,764,764,764,5144,5144,5144,5144,5144,5144,5144,5144,7433,7433,7433,7433,7433,7433,7433,7433,4126,4126,4126,4126,4126,4126,4126,4126,8185,8185,8185,8185,8185,8185,8185,8185,76,76,76,76,76,76,76,76,76,76,76,5096,5096,5096,5096,5096,5096,5096,5096,8,8,8,8,8,8,8,8,8,8,8,8,8,7852,7852,7852,7852,1979,1979,1979,1979,1979,1979,1979,1979,4612,4612,4612,4612,4612,4612,4612,4612,4651,4651,4651,4651,4651,4651,4651,4651,4651,4651,4651,4651,4651,4651,4651,4651,4651,4651,4651,4651,4651,4651,4651,4220,4220,4220,4220,4220,4220,4220,4220,2442,2442,2442,2442,2442,2442,2442,2442,5179,5179,5179,5179,5179,5179,5179,5179,5179,5179,5179,2940,2940,2940,2940,2940,2940,2940,2940,7489,7489,7489,7489,7489,7489,7489,7489,3199,3199,3199,3199,3199,3199,3199,3199,3862,3862,3862,3862,3862,3862,3862,3862,6842,6842,6842,6842,6842,6842,6842,6842,879,879,879,879,879,879,879,879,2047,2047,2047,2047,2047,2047,2047,2047,2977,2977,2977,2977,2977,2977,2977,2977,2977,2977,2977,2977,2977,6845,6845,6845,6845,6845,6845,6845,6845,6026,6026,6026,6026,6026,6026,6026,6026,2916,2916,2916,2916,2916,2916,2916,2916,5007,5007,5007,5007,5007,5007,5007,5007,4378,4378,4378,6666,6666,6666,913,913,913,913,913,913,913,913,913,913,913,4394,4394,4394,4394,4394,4394,2632,2632,2632,2632,2632,2632,2632,2632,3299,3299,3299,3299,3299,3299,3299,3299,3299,3299,3299,3554,3554,3554,3554,3554,6661,6661,6661,6661,6661,6661,6661,6661,4263,4263,4263,4263,4263,4263,4263,4263,4263,4263,4263,7483,7483,7483,7483,7483,7483,7483,7483,7483,7483,7483,5569,5569,5569,5569,5569,5569,5569,5569,5569,5569,5569,5569,5569,8224,8224,3546,3546,3546,3546,3546,3546,3546,3546,5605,5605,5605,5605,5605,5605,5605,5605,3165,3165,3165,3165,3165,3165,3165,745,745,745,745,745,745,745,745,745,745,745,8090,8090,8090,8090,993,993,993,993,993,993,993,993,4546,4546,4546,4546,4546,4546,4546,4546,7305,7305,7305,7305,7305,7305,7305,7305,7305,7305,7305,6941,6941,6941,6941,6941,6941,6941,6941,5130,5130,5130,5130,5130,1838,1838,1838,1838,1838,1838,1838,1838,1838,1838,1838,1838,1838,1838,1838,1838,1838,1838,1838,1838,1838,1838,1838,6098,6098,6098,6098,6098,6098,6098,6098,6098,6098,6098,6098,3666,3666,3666,3666,3666,3666,3666,3666,3666,3666,3666,5683,5683,5683,5683,5683,5683,5683,5683,5683,5683,5683,5683,5683,5683,5683,5683,5683,5683,5683,5683,5683,2381,2381,2381,2381,2381,2381,2381,2381,2381,2381,2381,2381,2381,2381,2381,2381,2381,488,488,488,488,488,488,488,488,488,488,488,488,488,488,488,488,488,5308,5308,5308,5308,5308,5308,5308,5308,5308,5308,5308,5308,5308,5308,5308,5308,5308,5308,5308,5308,5308,5308,5308,3228,3228,3228,3228,3228,3228,3228,3228,3228,3228,3228,13,13,13,13,13,2838,2838,2838,2838,2838,2093,2093,2093,2093,2093,2093,2093,2093,4119,4119,4119,4119,4119,4119,4119,4119,6443,6443,6443,6443,6443,6443,6443,6443,6443,6443,6443,3447,3447,3447,3447,3447,3447,3447,3447,6713,6713,6713,6713,6713,6713,6713,6713,4473,4473,4473,4473,4473,4473,4473,4473,4972,4972,4972,4972,4972,4972,4972,4972,4972,4972,4972,3628,3628,3628,3628,3628,3628,3628,3628,3628,5804,5804,5804,5804,5804,5804,5804,5804,7139,7139,7139,7139,7139,7139,7139,7139,6027,6027,6027,6027,6027,6027,6027,6027,6027,6027,6027,6027,7598,7598,7598,7598,7598,7598,7598,7598,3308,3308,3308,3308,3308,3308,3308,3308,3308,3308,3308,7019,7019,7019,7019,7019,7019,7019,7019,5267,5267,5267,5267,5267,5267,5267,5267,5267,5267,5267,5267,5267,5267,5267,5267,5267,5267,5267,5267,5267,5267,5267,5267,5267,5267,5267,653,653,653,653,653,653,653,653,8391,8391,8391,8391,8391,8391,8391,8391,8391,8391,8391,8391,8391,8391,8391,8391,8391,8391,8391,8391,8391,8391,8391,8391,8391,8391,8391,1901,1901,1901,1901,1901,1901,1901,1901,1901,1901,1901,2004,2004,2004,2004,2004,2004,2004,2004,2004,2004,2004,2004,2004,2004,2004,2004,2004,2004,2004,2004,2004,2004,2004,2524,2524,2524,2524,2524,2524,2524,2524,7556,7556,7556,7556,7556,7556,7556,7556,7169,7169,7169,7169,7169,7169,7169,7169,1466,1466,1466,1466,1466,1466,1466,1466,1466,1466,1466,1466,1466,1466,1466,1466,1466,1466,1466,1466,1466,1466,1466,1466,1466,1466,1466,7100,7100,7100,7100,7100,7100,7100,7100,7100,7100,7100,7100,7100,8013,8013,8013,8013,8013,8013,8013,8013,685,685,685,685,685,685,685,685,7440,7440,7440,7440,7440,7440,7440,7440,7440,7440,7440,961,961,961,961,961,961,961,961,961,961,961,81,81,81,81,81,81,81,81,81,81,81,3168,3168,3168,3168,3168,3168,3168,3168,3168,3168,3168,2683,2683,2683,2683,2683,2683,2683,2915,2915,2915,2915,2915,2915,2915,2915,497,497,497,497,497,497,497,497,497,497,497,8289,8289,8289,8289,8289,8289,8289,8289,8289,8289,8289,8289,8289,7087,7087,7087,7087,7087,7087,7087,7087,6634,6634,6634,6634,6634,6634,6634,6634,6853,6853,2282,2282,2282,2282,2282,2282,2282,2282,8274,8274,8274,8274,8274,8274,8274,8274,494,494,494,494,494,494,494,494,494,494,494,494,494,494,494,494,494,122,122,122,122,122,122,122,122,122,122,122,5219,5219,5219,5219,5219,5219,5219,5219,5219,5219,5219,833,833,833,833,833,833,833,833,3663,3663,3663,3663,3663,3663,3663,3663,3663,3663,3663,7360,7360,7360,1743,1743,1743,1743,1743,1743,1743,1743,1743,1743,1743,1743,1743,1743,1743,1743,1743,934,934,934,934,934,934,934,934,934,934,934,2841,2841,2841,2841,2841,2841,2841,2841,5977,5977,5977,5977,5977,5977,5977,5977,5977,5977,5977,5598,5598,5598,5598,5598,5598,5598,5598,5598,5598,5598,5598,5598,5598,5598,5598,2316,2316,2316,2316,2316,2316,2316,2316,5449,5449,5449,5449,5449,5449,3125,3125,3125,3125,3125,3125,3125,3125,3125,3125,3125,3125,3125,365,365,365,365,365,365,365,365,3686,3686,3686,3686,3686,3686,3686,3686,3686,3686,3686,7334,7334,7334,7334,7334,7334,7334,7334,6377,6377,6377,6377,6377,6377,7351,7351,7351,7351,7351,7351,7351,7351,5610,5610,5610,5610,5610,5610,5610,5610,5610,5610,5121,5121,5121,5121,5121,5121,5121,5121,5121,5121,5121,5121,5121,5121,5121,5121,5121,1024,1024,1024,1024,1024,1024,1024,1024,1024,1024,1024,3714,3714,3714,3714,3714,3714,3714,3714,6244,6244,6244,6244,6244,6244,6244,6244,6244,6244,6244,8069,8069,8069,8069,8069,8069,8069,8069,8069,8069,8069,4028,4028,4028,4028,4028,4028,4028,4028,4028,4028,4028,8322,8322,8322,8322,8322,8322,8322,8322,4532,4532,4532,4532,4532,4532,4532,4532,4532,4532,4532,8521,8521,8521,8521,8521,8521,8521,8521,3692,3692,3692,3692,3692,3692,3692,3692,4908,4908,4908,4908,4908,4908,4908,4908,4908,4908,4908,4773,4773,4773,4773,4773,4773,4773,5324,5324,5324,5324,5324,2976,2976,2976,2976,2976,2976,2976,2976,901,901,901,901,901,901,901,901,901,901,901,4900,4900,4900,4900,4900,4900,4900,4900,4900,4900,4900,4900,4900,6043,6043,6043,6043,6043,6043,6043,6043,1589,1589,1589,1589,1589,1589,1589,1589,1589,1589,1589,4970,4970,4970,4970,4970,4970,4970,4970,4970,4970,4970,7227,7227,7227,7227,3152,3152,3152,3152,3152,3152,3152,3152,3152,3152,3152,5955,5955,5955,5955,5955,5955,5955,5955,5955,5955,5955,1700,1700,1700,1700,1700,1700,1700,1700,1700,1700,1700,2451,2451,2451,2451,2451,2451,2451,2451,7699,7699,7699,7699,7699,7699,7699,7699,6209,6209,6209,6209,6209,6209,6209,6209,6209,6209,6209,6209,6060,6060,6060,6060,6060,6060,6060,6060,6060,7877,7877,7877,7877,7877,7877,7877,7877,7877,7877,7877,1490,1490,1490,1490,1490,1490,1490,1490,1490,1490,1490,1490,1490,4544,4544,4544,4544,4544,4544,4544,4544,4544,4544,4544,551,551,551,551,551,551,551,551,551,551,551,279,279,279,279,279,279,279,279,5907,5907,5907,5907,5907,5907,5907,5907,8057,8057,8057,8057,8057,8057,8057,8057,8057,8057,8057,8070,8070,8070,8070,8070,8070,8070,8070,8070,8070,8070,8070,8070,8070,8070,8070,8070,8070,8070,8070,8070,8070,8070,1043,1043,1043,1043,1043,1043,1043,1043,5775,5775,5775,5775,5775,5775,5775,5775,5775,5775,5775,6385,6385,6385,6385,6385,6385,6385,6385,6385,6385,6385,6385,6385,6385,6385,6385,6385,6385,6385,6385,6385,6385,2125,2125,2125,2655,2655,2655,2655,2655,2655,2655,2655,701,701,701,701,701,701,701,701,701,701,701,5233,5233,5233,5233,5233,5233,5233,5233,5233,5233,5233,4393,4393,4393,4393,4393,4393,4393,4393,8228,8228,8228,8228,8228,8228,8228,8228,8228,8228,8228,7223,7223,7223,7223,7223,7223,7223,7223,7223,7223,7223,7223,7223,3291,3291,3291,3291,3291,3291,3291,3291,2129,2129,2129,2129,2129,2129,2129,2129,4698,4698,4698,4698,4698,4698,4698,4698,8136,8136,8136,8136,8136,8136,8136,8136,4633,4633,4633,4633,4633,4633,4633,4633,6103,6103,6103,6103,6103,6103,6103,6103,6103,6103,6103,6103,6103,6103,6103,6103,3441,3441,3441,3441,3441,3441,3441,3441,7211,7211,7211,7211,7561,7561,7561,7561,7561,7561,7561,7561,7561,7561,7561,7561,7561,5446,5446,5446,5446,5446,5387,5387,5387,5387,5387,5387,5387,5387,3089,3089,3089,3089,3089,3089,3089,3089,6232,6232,6232,6232,6232,6232,6232,6232,1616,1616,1616,1616,1616,1616,1616,1616,1616,1616,1616,1616,6033,6033,6033,6033,6033,6033,6033,6033,2171,2171,2171,2171,2171,2171,2171,2171,1188,1188,1188,1188,1188,1188,1188,1188,6908,6908,6908,6908,6908,6908,6908,6908,8215,8215,8215,8215,8215,8215,8215,8215,8215,8215,8215,7734,7734,7734,7734,7734,7734,7734,7734,3883,3883,3883,3883,3883,3883,3883,3883,173,173,173,173,173,173,173,173,630,630,630,630,630,630,630,630,2269,2269,2269,2269,2269,2269,2269,2269,2269,2269,2269,1962,1962,1962,1962,1962,1962,1962,1962,2100,2100,2100,2100,2100,2100,2100,2100,2100,2100,2100,6942,6942,6942,6942,6942,6942,6942,6942,6002,6002,6002,6002,6002,6002,6002,6002,6002,6002,6002,6002,6002,6002,6002,6002,4471,4471,4471,4471,4471,4471,4471,4471,5763,5763,5763,5763,5763,5763,5763,5763,5763,5763,5763,2033,2033,2033,2033,2033,2033,2033,2033,3389,3389,3389,3389,3389,3389,3389,3389,4866,4866,4866,4866,4866,4866,4866,4866,4866,4866,4866,6292,6292,6292,6292,6292,6292,6292,6292,6549,6549,6549,6549,6549,6549,6549,6549,6097,6097,6097,6097,6097,6097,6097,6097,6097,2760,2760,2760,2760,2760,2760,2760,2760,233,233,233,233,233,233,233,233,3334,3334,3334,3334,3334,3334,3334,3334,3334,3334,3334,3334,3334,3334,3334,3334,3334,3334,3334,3334,3334,3334,3334,2247,2247,2247,2247,2247,2247,2247,2247,2247,2247,2247,2247,2247,1526,1526,1526,1526,1526,1526,1526,1526,1526,1526,1526,3593,3593,3593,3593,3593,3593,3593,3593,6844,6844,6844,6844,6844,6844,6844,6844,6844,6844,6844,3805,3805,3805,3805,3805,3805,3805,3805,7983,7983,7983,7983,7983,7983,7983,7983,7983,7983,7983,7983,7983,7983,7983,7983,7983,6864,6864,6864,6864,6864,6864,6864,6864,582,582,582,582,582,582,582,582,2886,2886,2886,2886,6528,6528,6528,6528,6528,6528,6528,6528,2660,2660,2660,2660,2660,2660,2660,2660,3039,3039,3039,3039,3039,3039,3039,3039,453,453,453,453,453,453,453,453,453,453,453,453,453,453,453,453,453,5381,5381,5381,5381,5381,5381,5381,5381,7462,7462,7462,7462,7462,7462,7462,7462,3525,3525,3525,3525,3525,3525,3525,3525,4589,4589,4589,4589,4589,4589,4589,4589,4589,4589,4589,4589,4589,4589,4589,4589,4589,7354,7354,7354,7354,7354,7354,7354,7354,7354,7354,7354,6282,6282,6282,6282,6282,6282,6282,6282,6282,6282,6282,6282,6282,6804,6804,6804,6804,6804,6804,6804,5124,5124,5124,5124,5124,5124,5124,5124,5124,5124,5124,965,965,965,965,965,965,965,965,8452,8452,8452,8452,8452,8452,8452,8452,8452,8452,8452,5310,5310,5310,5310,5310,5310,5310,5310,5310,5310,5310,4225,4225,4225,4225,4225,4225,4225,4225,8357,8357,8357,8357,8357,8357,8357,8357,7946,7946,7946,7946,7946,7946,7946,7946,7946,7946,7946,7946,7946,7946,7946,7946,7946,7946,7946,7946,7946,7946,7946,7946,7946,7946,7946,2712,2712,2712,2712,2712,2712,2712,2712,1934,1934,1934,1934,1934,1934,1934,1934,4884,4884,4884,4884,4884,4884,4884,4884,3779,3779,3779,3779,3779,3779,3779,3779,3779,3779,3779,2958,2958,2958,2958,2958,2958,2958,2958,7803,7803,7803,7803,7803,7803,7803,7803,5492,5492,3060,3060,3060,3060,3060,3060,3060,3060,7956,7956,7956,2126,2126,2126,2126,2126,2126,2126,2126,6787,6787,6787,6787,6787,6787,6787,6787,2224,2224,2224,2224,2224,2224,2224,2224,2652,2652,2652,2652,2652,2652,2652,2652,2652,2652,2652,506,506,506,506,506,506,506,506,3333,3333,3333,3333,3333,3333,3333,3333,658,658,658,658,658,658,658,658,658,658,658,492,492,492,492,492,492,492,492,492,492,492,492,492,492,492,492,492,492,492,492,492,492,492,492,492,492,492,5782,5782,5782,5782,5782,5782,5782,5782,5782,5782,5782,5782,1003,1003,1003,1003,1003,1003,1003,1003,3453,3453,3453,3453,3453,3453,3453,3453,4203,4203,4203,8337,8337,8337,8337,8337,8337,8337,8337,8337,8337,8337,8337,4661,4661,4661,4661,4661,4661,4661,4661,6611,6611,6611,6611,6611,6611,6611,6611,6638,6638,6638,6638,6638,6638,6638,6638,6638,6638,6638,6638,6638,6638,6638,6638,6638,6638,6638,6638,6638,6638,6638,7706,7706,7706,7706,7706,7706,7706,7706,5860,5860,5860,5860,5860,5860,5860,5860,2191,2191,2191,2191,2191,2191,2191,2191,2191,2191,2191,4610,4610,4610,4610,4610,4610,4610,4610,2355,2355,2355,2355,2355,2355,2355,2355,2355,2355,2355,2355,2355,2355,2355,2355,2355,7680,7680,7680,7680,7680,7680,7680,7680,2026,2026,2026,2026,2026,2026,2026,2026,2026,2026,2026,6814,6814,6814,6814,6814,6814,6814,6814,6814,6814,6814,6814,6814,6814,6814,6814,6814,1233,1233,1233,1233,1233,1233,1233,1233,3086,3086,3086,3086,3086,3086,3086,3086,3086,3086,3086,4879,4879,4879,4879,4879,4879,4879,4879,4879,4879,4879,4879,4879,4879,4879,4879,4879,7224,7224,7224,7224,7224,7224,7224,7224,6324,6324,6324,6324,6324,6324,6324,6324,6324,6324,6324,6324,6324,6324,6324,6324,6324,2341,2341,2341,2341,2341,2341,2341,2341,2341,2341,2341,3996,3996,3996,6964,6964,6964,6964,6964,6964,6964,6964,183,183,183,183,183,183,183,183,196,196,196,196,196,196,196,196,4846,4846,4846,4846,4846,4846,4846,4846,5157,5157,5157,5157,5157,5157,5157,5157,6825,6825,6825,6825,6825,6825,6825,6825,6825,6825,6825,4948,4948,4948,4948,4948,4948,4948,4948,5984,5984,5984,5984,5984,5984,5984,5984,5984,5984,5984,5984,1791,1791,1791,1791,1791,1791,1791,1791,7031,7031,7031,7031,7031,7031,7031,7031,1895,1895,1895,372,372,372,372,372,372,372,372,372,372,372,372,372,372,372,372,372,372,372,372,372,372,372,6534,6534,6534,6534,6534,6534,6534,6534,3771,3771,3771,3771,3771,3771,3771,3771,2343,2343,2343,2343,2343,2343,2343,2343,2846,2846,2846,2846,2846,2846,2846,2846,4865,4865,4865,4865,4865,4865,4865,4865,1178,1178,1178,1178,1178,1178,1178,1178,2219,2219,2219,2219,2219,2219,2219,2219,7366,7366,7366,7366,7366,7366,7366,7366,7366,7366,7366,3207,3207,3207,3207,3207,3207,3207,3207,3207,3207,3207,910,910,910,910,910,910,910,910,5571,5571,5571,5571,5571,5571,5571,5571,5571,5571,5571,5571,5571,3799,3799,3799,3799,3799,3799,3799,3799,5218,5218,5218,5218,6543,6543,6543,6543,6543,6543,6543,6543,6970,6970,6970,6970,6970,6970,6970,6970,6970,6970,6970,169,169,169,169,169,169,169,169,169,169,169,3664,3664,3664,3664,3664,3664,3664,3664,3664,3664,3664,4568,4568,4568,4568,4568,4568,4568,4568,4568,4568,4568,1801,1801,1801,1801,1801,1801,1801,1801,4103,4103,4103,4103,4103,4103,4103,4103,4103,4103,4103,3871,3871,3871,3871,3871,3871,3871,3871,3871,3871,3871,7988,7988,7988,7988,7988,7988,7988,7988,6323,6323,6323,6323,6323,6323,6323,6323,6323,2861,2861,2861,2861,2861,2861,2861,2861,2861,2861,2861,2861,2861,2861,2861,2861,2861,2861,2861,2861,2861,2861,2861,1414,1414,1414,1414,1414,1414,1414,1414,5921,5921,5921,5921,5921,5921,5921,5921,5921,5921,5921,5921,5921,6115,6115,6115,6115,6115,6115,6115,6115,6115,6115,6115,6115,6115,6115,6115,6115,6115,6115,6115,6115,6115,430,430,430,430,430,430,430,430,430,430,430,6038,6038,6038,6038,6038,6038,6038,6038,3594,3594,3594,3594,3594,3594,3594,3594,2627,2627,2627,2627,2627,2627,2627,2627,3241,3241,3241,3241,3241,3241,3241,3241,1822,1822,1822,1822,1822,1822,1822,88,88,88,88,88,88,88,88,457,457,457,457,457,457,457,457,3321,3321,3321,3321,3321,3321,3321,3321,1201,1201,1201,1201,1201,1201,1201,1201,5022,5022,5022,5022,5022,5022,5022,5022,6736,6736,6736,6736,6736,6736,6736,6736,6736,6736,6736,7020,7020,7020,7020,7020,7020,7020,7020,8113,8113,8113,8113,8113,8113,8113,8113,8113,8113,8113,8113,8113,8113,8113,8113,8113,8113,8113,8113,8113,8113,8113,291,291,291,4977,4977,4977,4977,4977,4977,4977,4977,5790,5790,5790,5790,5790,5790,5790,5790,5790,5790,5790,5790,5790,5790,5790,5790,5790,4553,4553,4553,4553,747,747,747,747,747,747,747,747,554,554,554,554,554,554,554,554,554,7746,7746,7746,7746,7746,7746,7746,7746,7746,7746,7746,1739,1739,1739,1739,1739,1739,1739,1739,1739,1739,1739,1739,1739,1739,1739,1739,1739,5409,5409,5409,5409,5409,5409,5409,5409,5409,5409,5409,5409,5409,4759,4759,4759,4759,4759,4759,4759,4759,1240,1240,1240,1240,1240,1240,1240,1240,1240,1240,1240,4652,4652,4652,4652,4652,4652,4652,4652,4652,4652,4652,8405,8405,8405,8405,8405,8405,8405,8405,7437,7437,7437,7437,7437,7437,7437,7437,7437,7437,7437,4264,4264,4264,4264,4264,4264,4264,4264,4264,4264,4264,4264,4264,4264,4264,4264,4264,3840,3840,3840,3840,3840,3840,3840,3840,3840,3840,3840,3840,3840,8369,8369,8369,8369,8369,8369,8369,8369,3294,3294,3294,3294,3294,3294,3294,3294,3294,3294,3294,3294,3294,3294,3294,3294,3294,3294,3294,3294,3294,3294,3294,3294,3294,3294,3294,7414,7414,7414,7414,7414,7414,7414,7414,6304,6304,6304,6304,6304,6304,6304,6304,6304,6304,2866,2866,2866,2866,2866,2866,2866,2866,2866,2866,2866,2866,2866,2866,2866,2866,2866,2866,2866,2866,2866,2866,2866,6256,6256,6256,6256,6256,6256,6256,6256,6983,6983,6983,6983,6983,6983,6983,6983,6983,6983,6983,6983,6983,1660,1660,1660,1660,1660,1660,1660,1660,6647,6647,6647,6647,6647,6647,6647,6647,6647,6647,6647,6684,6684,6684,6684,6684,6684,6684,6684,6684,6684,6684,5835,5835,5835,5835,5835,5835,5835,5835,5835,7268,7268,7268,7268,7268,7268,7268,7268,1216,1216,1216,1216,1216,1216,1216,1216,1216,1216,1216,1216,1216,6378,6378,6378,6378,6378,6378,6378,6378,6592,6592,6592,6592,6592,6592,6592,6592,1044,1044,1044,1044,1044,1044,1044,1044,1044,1044,1044,1044,1044,580,580,580,580,580,580,580,580,4885,4885,4885,4885,4885,4885,4885,4885,7041,7041,7041,7041,7041,7041,7041,7491,7491,7491,7491,7491,7491,7491,7491,7491,7491,7491,7491,7491,7491,7491,7491,7491,7491,7491,7491,7491,7491,7491,8194,8194,8194,8194,8194,3466,3466,3466,3466,3466,6221,6221,6221,6221,6221,6221,6221,6221,6221,6221,6221,6221,6221,6221,6221,6221,6221,6221,6221,6221,6221,6221,7518,7518,7518,7518,7518,7518,7518,7518,4175,4175,4175,4175,4175,4175,4175,4175,4175,4175,4175,5545,5545,5545,5545,7552,7552,7552,7552,7552,7552,7552,7552,317,317,317,317,317,317,317,317,2561,2561,2561,2561,2561,2561,2561,2561,8198,8198,8198,8198,8198,8198,8198,8198,6404,6404,6404,6404,6404,6404,6404,6404,2702,2702,2702,2702,2702,2702,2702,2702,2974,2974,2974,2974,2974,2974,2974,2974,79,79,79,79,79,79,79,79,4576,4576,4576,4576,4576,4576,4576,4576,3837,3837,3837,3837,3837,3837,3837,3837,3837,3837,3837,3837,3837,1019,1019,1019,1019,1019,1019,1019,1019,1165,1165,1165,1165,1165,1918,1918,1918,1918,1918,1918,1918,1918,1918,1918,1918,5284,5284,5284,5284,5284,5284,5284,5284,5284,5284,5284,129,129,129,129,129,129,129,129,1071,1071,1071,1071,1071,1071,1071,1071,1071,1071,1071,1071,1071,1071,1091,1091,1091,1091,1091,1091,1091,1091,1091,1091,1091,1091,1091,1091,1091,1091,1091,1091,1091,1091,1091,1091,1091,1091,1091,1091,1091,1803,1803,1803,1803,1803,1803,1803,1803,4624,4624,4624,4624,4624,4624,4624,4624,5457,5457,5457,5457,5457,5457,5457,5457,5457,5457,5457,5457,5457,4558,4558,4558,4558,4558,4558,4558,4558,5094,5094,5094,5094,5094,5094,5094,5094,2449,2449,2449,2449,2449,2449,2449,2449,2436,2436,2436,2436,2436,2436,2436,2436,2436,2436,2436,4499,4499,4499,4499,4499,4499,4499,4499,2043,2043,2043,2043,2043,2043,2043,2043,2043,2043,2043,3245,3245,3245,3245,3245,3245,3245,3245,3245,3245,3245,3245,3245,5443,5443,5443,5443,5443,5443,5443,5443,5443,5443,5443,2643,2643,2643,2643,2643,2643,2643,2643,2643,2643,2643,2643,2643,6187,6187,6187,6187,6187,6187,6187,6187,6187,6187,6187,6489,6489,6489,6489,6489,6489,6489,6489,6717,6717,6717,6717,6717,6717,6717,6717,209,209,209,209,209,209,209,209,4644,4644,4644,4644,4644,4644,4644,4644,234,234,234,234,1806,1806,1806,1806,1806,1806,1806,1806,3768,3768,3768,3768,3768,3768,3768,3768,1095,1095,1095,1095,1095,1095,1095,1095,1642,1642,1642,1642,1642,1642,1642,1642,1642,1642,1642,1710,1710,1710,1710,1710,1710,1710,1710,1710,1710,1710,1710,1710,359,359,359,359,359,359,359,359,1535,1535,1535,1535,1535,1535,1535,1535,1535,1535,1535,7690,7690,7690,7690,7690,7690,7690,7690,7690,7690,7690,748,748,748,748,748,748,748,748,1655,1655,1655,1655,1655,1655,1655,768,768,768,768,768,768,768,768,768,768,768,3922,3922,3922,3922,3922,3922,3922,3922,3922,3922,3922,3922,3922,3922,3922,3922,3922,6938,6938,6938,6938,6938,6938,6938,6938,6938,6938,6938,6938,6938,6938,6938,6938,6938,6128,6128,6128,6128,6128,6128,6128,6128,6128,6128,6128,6128,5243,5243,5243,5243,5243,5243,5243,5243,5243,5243,5243,134,134,134,134,134,134,134,134,134,134,134,134,134,134,134,134,134,7609,7609,7609,7609,7609,7609,7609,7609,7609,7609,7609,7808,7808,7808,7808,7808,7808,7808,7808,7808,7808,7808,1022,1022,1022,1022,1022,1022,1022,1022,4647,4647,4647,4647,4647,4647,4647,4647,8216,8216,8216,8216,8216,8216,8216,8216,8216,8216,8216,5586,5586,5586,5586,5586,5586,5586,5586,5586,5586,5586,5586,5586,5586,5586,5586,5586,5586,5586,5586,5586,2758,2758,2758,2758,2758,2758,2758,5152,5152,5152,5152,5152,5152,5152,5152,5152,5152,5152,1750,1750,1750,5300,5300,5300,5300,5300,5300,5300,5300,5300,5300,5300,6472,6472,6472,6472,6472,6472,6472,6472,3436,3436,3436,3436,3436,2425,2425,2425,399,399,399,399,399,399,399,399,399,399,399,7904,7904,7904,7904,7904,7904,7904,7904,3443,3443,3443,3443,3443,3443,3443,3443,3558,3558,3558,3558,3558,3558,3558,3558,1641,1641,1641,1641,1641,1641,1641,1641,1641,1641,1641,1641,1641,2461,2461,2461,2461,2461,2461,2461,2461,2461,2461,2461,2461,2461,2461,2461,2461,2461,2461,2461,2461,2461,2461,2461,893,893,7534,7534,7534,7534,7534,7534,7534,7534,7864,7864,7864,7864,7864,7864,7864,7864,7864,7864,7864,7192,7192,7192,7192,7192,7192,7192,7192,969,969,969,969,969,969,969,969,5167,5167,5167,5167,5167,5167,5167,5167,6886,6886,6886,1344,1344,1344,1344,1344,1344,1344,1344,1344,1344,1344,5333,5333,5333,5333,5333,5333,5333,5333,5414,5414,5414,5414,5414,5414,5414,5414,5414,2445,2445,2445,2445,2445,2445,2445,2445,2445,2445,2445,26,26,26,26,26,26,26,26,26,26,26,26,26,3906,3906,3906,3906,3906,3906,3906,3906,4006,4006,4006,4006,4006,4006,4006,4006,4006,4006,4006,4006,4006,4006,4006,4006,4006,841,841,841,841,841,841,841,841,841,841,841,841,841,841,841,841,841,4921,4921,4921,4921,4921,4921,4921,4921,7208,7208,7208,7208,7208,7208,7208,7208,1956,1956,1956,1956,1956,1956,1956,1956,848,848,848,848,848,848,848,848,848,848,848,848,848,848,848,848,848,848,848,848,848,848,848,2210,2210,2210,2210,2210,2210,2210,2210,149,149,149,149,149,149,149,149,1352,1352,1352,1352,1352,1352,1352,1352,871,871,871,871,871,871,871,871,871,871,871,7799,7799,7799,7799,7799,7799,6170,6170,6170,6170,6170,6170,6170,6170,6170,6170,2610,2610,2610,2610,2610,2610,2610,2610,2610,2610,2610,2610,2610,301,301,301,301,301,301,301,301,7939,7939,7939,7939,7939,7939,7939,7939,7939,7939,7939,6153,6153,6153,6153,6153,6153,6153,6153,6153,6153,6153,6153,6153,6153,6153,6428,6428,6428,6428,6428,6428,6428,6428,8032,8032,8032,8032,8032,8032,8032,8032,4158,4158,4158,4158,4158,4158,4158,4158,4158,4158,4158,4158,4158,4158,4158,4158,4158,4158,4158,4158,4158,4158,4158,1952,1952,1952,1952,1952,1952,1952,1952,6380,6380,6380,6380,6380,6380,6380,6380,1852,1852,1852,1852,1852,1852,1852,1852,1852,1852,1852,1852,1852,3520,3520,3520,3520,3520,3520,3520,3520,3520,3520,3520,7343,7343,7343,7343,7343,7343,7343,7343,6681,6681,6681,6681,6681,6681,6681,6681,5664,5664,5664,5664,5664,5664,5664,5664,5664,5664,5664,5664,8260,8260,8260,8260,8260,8260,8260,8260,2294,2294,2294,2294,2294,2294,2294,2294,2294,2294,2294,4171,4171,4171,4171,4171,4171,4171,4171,2311,2311,4141,4141,4141,4141,4141,4141,4141,4141,2720,2720,2720,2720,2720,2720,2720,2720,6975,6975,6975,6975,6975,6975,6975,6975,920,920,920,7115,7115,7115,7115,7115,7115,7115,7115,8358,8358,8358,8358,8358,8358,8358,8358,8358,8358,8358,151,151,151,151,151,151,151,151,1094,1094,1094,1094,1094,1094,1094,1094,1094,1094,1094,1094,1094,1094,1094,1094,1094,1094,1094,1094,1094,1094,1094,7514,7514,7514,7514,7514,7514,7514,7514,3167,3167,3167,3167,3167,3167,3167,3167,997,997,997,997,997,997,997,997,2879,2879,2879,2879,2879,2879,2879,2879,3782,3782,3782,3782,3782,3782,3782,3782,3962,3962,3962,3962,3962,3962,3962,3962,4289,4289,4289,4289,4289,4289,4289,4289,4289,4289,4289,4819,4819,4819,4819,4819,4819,4819,4819,4819,4819,4819,1835,1835,1835,1835,1835,1835,1835,1835,1835,1835,1835,1480,1480,1480,1480,1480,1480,1480,1480,1176,1176,1176,1176,1176,1176,1176,1176,1176,1176,1176,1176,1176,1176,1176,1176,1176,1176,1176,1176,1176,1176,1176,6674,6674,6674,6674,6674,6674,6674,6674,2504,2504,2504,2504,2504,2504,2504,2504,2504,2504,2504,7280,7280,7280,7280,7280,7280,7280,7280,7280,7280,7280,7280,7280,3319,3319,3319,3319,3319,3319,3319,3319,4538,4538,4538,4538,4538,4538,4538,4538,4538,4538,4538,4371,4371,4371,4371,4371,6972,6972,6972,6972,6972,6972,6972,6972,2466,2466,2466,2466,2466,2466,2466,2466,2466,2466,2466,2869,2869,2869,2869,2869,2869,2869,2869,2869,2869,2869,2242,2242,2242,2242,2242,2242,2242,2242,3406,3406,3406,3406,3406,3406,3406,3406,3406,3406,3406,3406,3406,3406,3406,3406,3406,8263,8263,8263,8263,8263,8263,8263,8263,4545,4545,4545,4545,4545,4545,4545,4545,8083,8083,8083,8083,8083,8083,8083,8083,3992,3992,3992,3992,3992,3992,3992,3992,2978,2978,2978,2978,2978,2978,2978,2978,2830,2830,2830,2830,2830,2830,2830,2830,4447,4447,4447,4447,4447,4447,4447,6473,6473,6473,6473,6473,6473,6473,6473,6622,6622,6622,6622,6622,6622,1821,1821,1821,1821,1821,1821,1821,1821,1821,1821,1821,6000,6000,6000,6000,6000,6000,6000,6000,6000,7648,7648,7648,7648,7648,7648,7648,7648,7648,7648,7648,1525,1525,1525,1525,1525,1525,1525,1525,1525,1525,1525,1372,1372,1372,1372,1372,1372,1372,1372,1372,1372,1372,1372,1372,1372,1372,1372,1372,1372,1372,1372,1372,1372,1372,5730,5730,5730,5730,5730,5730,5730,5730,5730,7824,7824,7824,7824,7824,7824,7824,7824,7824,7824,7824,5256,5256,5256,5256,5256,5256,5256,5256,4455,4455,4455,4455,4455,4455,4455,4455,1018,1018,1018,1018,1018,1018,1018,1018,1018,1018,1018,1018,1018,4996,4996,4996,4996,4996,4996,4996,4996,1818,1818,1818,1818,1818,1818,1818,1818,1818,1818,1818,1818,1818,1818,1818,1818,1818,2596,2596,2596,2596,2596,2596,2596,2190,2190,2190,2190,2190,2190,2190,2190,4926,4926,4926,4926,4926,4926,4926,4926,4926,4926,4926,1679,1679,1679,1679,1679,1679,1679,1679,8093,8093,8093,8093,8093,8093,8093,8093,374,374,374,374,374,374,374,374,374,374,374,374,374,2309,2309,2309,2309,2309,2309,2309,2309,1191,1191,1191,1191,1191,1191,1191,1191,6341,6341,6341,6341,6341,6341,6341,6341,5057,5057,5057,5057,5057,5057,5057,5057,3422,3422,3422,3422,3422,3422,3422,3422,3658,3658,3658,3658,3658,3658,3658,3658,3658,3658,3658,1923,1923,1923,1923,1923,1923,1923,1923,718,718,718,718,718,718,718,718,718,718,718,718,718,718,718,718,718,718,718,718,718,718,7385,7385,7385,7385,7385,7385,7385,7385,7780,7780,7780,7780,7780,7780,7780,7780,7780,7780,7780,3949,3949,3949,3949,3949,3949,3949,3949,3146,3146,3146,3146,3146,3146,3146,3146,7080,7080,7080,7080,7080,7080,7080,7080,1262,1262,1262,1262,1262,1262,1262,1262,1262,1262,1262,1262,1262,1262,1262,1262,1262,1262,1262,1262,1262,1262,1262,5367,5367,5367,5367,5367,5367,5367,5367,5313,5313,5313,5313,5313,5313,5313,5313,940,940,940,940,940,940,940,940,6466,6466,2192,2192,2192,2192,2192,2192,2192,2192,2192,2192,2192,2192,7407,7407,7407,7407,7407,7407,7407,7407,7407,7407,7407,4051,4051,4051,4051,4051,4051,4051,4051,4051,4051,4051,4077,4077,4077,4077,4077,4077,4077,1868,1868,1868,1868,1868,1868,1868,1868,1868,1868,1868,1868,1868,4590,4590,4590,4590,4590,4590,4590,4590,4590,4590,4590,4590,4590,7085,7085,7085,7085,7085,7085,7085,7085,1017,1017,1017,1017,1017,1017,1017,1017,1017,1017,1017,1017,1017,1017,1017,1017,1017,7758,7758,7758,7758,7758,7758,7758,7758,6181,6181,6181,6181,6181,6181,6181,6181,6181,6181,6181,6181,6181,5785,5785,5785,5785,5785,5785,5785,5785,3328,3328,3328,3328,3328,3328,3328,3328,3328,3328,3328,3328,3328,3328,3328,3328,3328,3328,3328,3328,3328,3328,3328,1786,1786,1786,1786,1786,1786,1786,1786,1028,1028,1028,1028,1028,1028,1028,1028,1028,1028,1028,1028,1028,1028,1028,1028,1028,1028,1028,1028,1028,1028,1028,1028,1028,1028,1028,6733,6733,6733,6733,6733,6733,6733,6733,6733,6733,6733,6733,6733,6733,6733,6733,6733,6733,6733,6733,6733,6733,6733,6733,6733,6733,6733,2481,2481,2481,2481,2481,2481,2481,2481,614,614,614,614,614,614,614,614,3102,3102,3102,3102,3102,3102,3102,3102,3102,3102,3102,8471,8471,8471,8471,8471,8471,8471,8471,6933,6933,6933,6933,6933,6933,6933,6933,3742,3742,3742,3742,3742,3742,3742,3742,2759,2759,2759,2759,2759,2759,2759,2759,4650,4650,4650,4650,4650,4650,4650,4650,3716,3716,3716,3716,3716,3716,3716,3716,3716,3716,3716,2118,2118,2118,2118,2118,2118,2118,2118,2118,2118,2118,2118,2118,31,31,31,31,31,31,31,31,8416,8416,8416,8416,8416,8416,8416,8416,248,248,248,248,248,248,248,248,4782,4782,4782,4782,4782,4782,4782,4782,4782,4782,4782,1983,1983,1983,1983,1983,1983,1983,1983,6743,6743,6743,6743,6743,6743,6743,6743,7445,7445,7445,7445,7445,7445,7445,7445,7445,7445,7445,7445,7445,7445,7445,7445,7445,7445,7445,7445,7445,7445,7445,6644,6644,6644,6644,6644,6644,6644,6644,4167,4167,4167,4167,4167,4167,4167,4167,4167,4167,4167,6682,6682,6682,6682,6682,6682,6682,6682,6682,6682,6682,4845,4845,4845,4845,4845,4845,4845,4845,4845,4845,4845,2519,2519,2519,2519,2519,2519,2519,2519,5275,5275,5275,5275,5275,5275,5275,5275,5275,5275,5275,5275,5275,5275,5275,5275,5275,5275,5275,5275,5275,5275,5275,1572,1572,1572,1572,1572,1572,1572,1572,8256,8256,8256,8256,8256,8256,8256,8256,3283,3283,3283,3283,3283,3283,3283,3283,3283,3283,3283,3283,3283,3283,3283,3283,3283,713,713,713,713,713,713,713,713,713,713,713,713,713,713,713,713,713,4896,4896,4896,4896,4896,4896,4896,4896,4896,4896,4896,4896,4896,754,754,754,754,754,754,754,754,191,191,191,191,191,191,191,191,2876,2876,2876,2876,2876,2876,2876,2876,2876,2876,2876,2876,2876,2876,2876,2876,2876,2876,2876,2876,2876,2876,2876,5919,5919,5919,5919,5919,5919,5919,5919,5919,5919,5919,5919,5919,5919,5919,5919,5173,5173,5173,5173,5173,5173,5173,5173,858,858,858,858,858,858,858,858,529,529,529,529,529,529,529,529,529,529,529,7521,7521,7521,7521,7521,7521,7521,7521,7521,7521,7521,7521,7521,7521,7521,7521,7521,7521,7521,7521,7521,7521,7521,356,356,356,356,356,8106,8106,8106,8106,8106,8106,8106,8106,8106,8106,8106,8106,8106,8106,8106,8106,8106,3729,3729,3729,3729,3729,3729,3729,3729,3729,3729,3729,3729,3729,3729,3729,3729,3729,3729,3729,3729,3729,3729,3729,300,300,300,300,300,300,300,300,300,300,300,300,300,1374,1374,1374,1374,1374,1374,1374,1374,1374,1374,1374,1374,1374,1374,1374,1374,1374,1374,1374,1374,1374,1374,1374,5358,5358,5358,4283,4283,4283,4283,4283,4283,4283,4283,4283,4283,4283,4283,4283,4283,5568,5568,5568,5568,5568,5568,5568,5568,7962,7962,7962,7962,7962,7962,7962,7962,7962,7962,7962,1103,1103,1103,1103,1103,1103,1103,1103,1103,1103,1103,1103,1103,8270,8270,8270,8270,8270,8270,8270,8270,5406,5406,5406,5406,5406,5406,5406,5406,5118,5118,5118,5118,5118,5118,5118,5118,5118,5118,5118,5118,5118,2809,2809,2809,2809,2809,2809,2809,2809,2809,2809,2809,2809,2809,2809,2809,2809,2809,2809,2809,2809,2809,2809,2809,7645,7645,7645,7645,7645,7645,7645,7645,321,321,321,321,321,321,321,321,3472,3472,3472,3472,3472,3472,3472,3472,4616,4616,4616,4616,4616,4616,4616,4616,6296,6296,6296,6296,6296,6296,6296,6296,6296,6296,6296,6296,6296,5226,5226,5226,5754,5754,5754,5754,5754,5754,5754,5754,206,206,206,206,206,206,206,206,4720,4720,4720,4720,4720,4720,4720,4720,4720,4720,4720,4720,4720,4720,4720,4720,4720,7106,7106,7106,7106,7106,7106,7106,7106,1884,1884,1884,1884,1884,1884,1884,1884,6779,6779,6779,6779,6779,6779,6779,6779,2644,2644,2644,2644,2644,2644,2644,2644,1944,1944,1944,1944,1944,1944,1944,1944,2163,2163,2163,2163,2163,2163,2163,